wavelength	0.0	10.0	20.0	30.0	40.0	50.0	60.0	70.0
251.0	0.291252	0.284082	0.263234	0.230954	0.191775	0.154174	0.13537	0.175016		
252.0	0.29066	0.283472	0.262591	0.230289	0.1911	0.153463	0.134545	0.17397		
253.0	0.290037	0.282838	0.261936	0.229628	0.19044	0.152774	0.133743	0.172946		
254.0	0.289385	0.282179	0.261268	0.228965	0.189788	0.152097	0.132956	0.171939		
255.0	0.288708	0.281499	0.260589	0.228302	0.189141	0.151429	0.13218	0.170945		
256.0	0.287998	0.28079	0.259891	0.22763	0.188494	0.150767	0.131413	0.169964		
257.0	0.28725	0.280048	0.259169	0.226944	0.187842	0.150106	0.130655	0.168999		
258.0	0.286461	0.279268	0.25842	0.226242	0.187182	0.149447	0.129908	0.168054		
259.0	0.285574	0.278396	0.257592	0.225476	0.186468	0.148727	0.129077	0.166985		
260.0	0.284637	0.277478	0.256727	0.224684	0.185734	0.147992	0.128227	0.165884		
261.0	0.283687	0.27655	0.255858	0.223893	0.185011	0.147276	0.127404	0.164819		
262.0	0.282734	0.275619	0.254991	0.223112	0.184302	0.146581	0.12661	0.163789		
263.0	0.281785	0.274695	0.254133	0.222344	0.183614	0.145912	0.125847	0.162793		
264.0	0.280674	0.273608	0.253116	0.221422	0.18278	0.145115	0.124981	0.161731		
265.0	0.278885	0.271845	0.251423	0.219833	0.181304	0.143726	0.123613	0.1603		
266.0	0.277118	0.270104	0.249755	0.218273	0.179861	0.142372	0.12228	0.158902		
267.0	0.275376	0.268388	0.248115	0.216743	0.17845	0.141052	0.120981	0.157534		
268.0	0.273662	0.266701	0.246505	0.215245	0.177072	0.139766	0.119714	0.156195		
269.0	0.271976	0.265043	0.244925	0.213778	0.175728	0.138514	0.11848	0.154883		
270.0	0.270314	0.263409	0.243371	0.21234	0.17441	0.137281	0.11725	0.153549		
271.0	0.268677	0.261801	0.241845	0.21093	0.17312	0.136069	0.116023	0.152194		
272.0	0.267073	0.260227	0.240353	0.209555	0.171864	0.13489	0.114829	0.150864		
273.0	0.265503	0.258686	0.238895	0.208214	0.170644	0.133746	0.113666	0.14956		
274.0	0.263965	0.257178	0.23747	0.206908	0.169457	0.132634	0.112533	0.148281		
275.0	0.26246	0.255703	0.236079	0.205636	0.168305	0.131555	0.111429	0.147024		
276.0	0.260439	0.253712	0.234174	0.20386	0.166678	0.130061	0.110009	0.145597		
277.0	0.2579	0.251203	0.231755	0.201583	0.16458	0.128154	0.108274	0.143996		
278.0	0.255391	0.248725	0.229369	0.199342	0.162521	0.126283	0.106569	0.142412		
279.0	0.252914	0.24628	0.227018	0.197138	0.160499	0.124448	0.104893	0.140845		
280.0	0.250469	0.243868	0.224701	0.194971	0.158514	0.122648	0.103246	0.139293		
281.0	0.248056	0.241489	0.222419	0.19284	0.156566	0.120883	0.101626	0.137756		
282.0	0.245545	0.239012	0.220042	0.19062	0.154541	0.119061	0.099982	0.136241		
283.0	0.242538	0.236039	0.217175	0.18793	0.152093	0.116907	0.098158	0.134765		
284.0	0.239549	0.233087	0.214332	0.185268	0.149676	0.114782	0.096355	0.133295		
285.0	0.236582	0.230157	0.211514	0.182635	0.147291	0.112687	0.094575	0.131831		
286.0	0.233636	0.227249	0.208721	0.180031	0.144936	0.110621	0.092817	0.130375		
287.0	0.230711	0.224364	0.205955	0.177457	0.142613	0.108586	0.091082	0.128926		
288.0	0.227809	0.221503	0.203215	0.174912	0.140322	0.10658	0.08937	0.127486		
289.0	0.224113	0.217851	0.199701	0.171634	0.13737	0.104039	0.087313	0.125967		
290.0	0.220073	0.21386	0.195861	0.168051	0.134152	0.101285	0.08512	0.124411		
291.0	0.216039	0.209878	0.192036	0.164492	0.130965	0.098564	0.082952	0.122856		
292.0	0.212013	0.205906	0.188229	0.160961	0.127813	0.095879	0.08081	0.121302		
293.0	0.208	0.20195	0.184443	0.157461	0.124699	0.093231	0.078696	0.119749		
294.0	0.204002	0.198011	0.180684	0.153995	0.121625	0.090625	0.076611	0.118197		
295.0	0.200024	0.194095	0.176954	0.150568	0.118596	0.088062	0.074557	0.116646		
296.0	0.194558	0.188708	0.171803	0.145816	0.114394	0.084546	0.071852	0.114827		
297.0	0.188721	0.182956	0.166314	0.140764	0.109942	0.080837	0.069011	0.112919		
298.0	0.182896	0.177223	0.160857	0.135764	0.105556	0.077193	0.066206	0.110984		
299.0	0.176816	0.171243	0.15518	0.130586	0.101053	0.073508	0.063457	0.109211		
300.0	0.169578	0.164128	0.148438	0.124479	0.095833	0.069428	0.060786	0.108158		
301.0	0.162271	0.156954	0.141666	0.118376	0.090647	0.06539	0.058125	0.107026		
302.0	0.15491	0.149736	0.134879	0.112293	0.085508	0.061401	0.05547	0.105799		
303.0	0.147413	0.142398	0.128017	0.106212	0.080484	0.057701	0.053379	0.105528		
304.0	0.139748	0.134907	0.121048	0.100095	0.075516	0.054182	0.051653	0.105878		
305.0	0.131968	0.127317	0.114015	0.093955	0.070556	0.050677	0.049906	0.106125		
306.0	0.124084	0.119634	0.106924	0.087797	0.065605	0.047179	0.048123	0.106246		
307.0	0.116543	0.112306	0.100216	0.082068	0.061162	0.044375	0.047422	0.108096		
308.0	0.108962	0.104949	0.093511	0.076373	0.056784	0.041668	0.046876	0.110189		
309.0	0.101293	0.097518	0.086761	0.070667	0.052416	0.038986	0.046369	0.112343		
310.0	0.09354	0.090015	0.079971	0.064952	0.048064	0.036337	0.045917	0.114585		
311.0	0.083802	0.080615	0.07153	0.05796	0.042967	0.033835	0.047156	0.1208		
312.0	0.077097	0.07418	0.065839	0.053358	0.039812	0.032839	0.049528	0.127762		
313.0	0.073763	0.071016	0.063123	0.051268	0.038647	0.033365	0.053012	0.135377		
314.0	0.071438	0.068832	0.061286	0.049901	0.0381	0.034625	0.057647	0.144716		
315.0	0.073099	0.070492	0.062864	0.051347	0.040068	0.039095	0.067486	0.162014		
316.0	0.078348	0.075531	0.067246	0.054876	0.043597	0.044898	0.07836	0.179525		
317.0	0.086146	0.082926	0.073497	0.059763	0.048176	0.051484	0.089328	0.195825		
318.0	0.097577	0.093666	0.08238	0.066604	0.054596	0.060407	0.103296	0.215483		
319.0	0.121699	0.116207	0.100952	0.08133	0.068838	0.078814	0.129049	0.248647		
320.0	0.145791	0.138598	0.119384	0.09654	0.084286	0.098071	0.153891	0.278378		
321.0	0.166207	0.157594	0.135309	0.110383	0.098717	0.115209	0.174465	0.301539		
322.0	0.188439	0.178384	0.153184	0.126658	0.11597	0.135111	0.197394	0.326372		
323.0	0.218177	0.2065	0.178326	0.150737	0.141777	0.164084	0.229568	0.359855		
324.0	0.246764	0.234031	0.204242	0.176725	0.169546	0.194113	0.261386	0.391391		
325.0	0.26857	0.255453	0.225352	0.198523	0.192599	0.218212	0.285897	0.414716		
326.0	0.290951	0.277864	0.248281	0.222648	0.217904	0.244094	0.311503	0.438352		
327.0	0.317689	0.305205	0.277287	0.253608	0.250055	0.276248	0.342376	0.465871		
328.0	0.346504	0.335211	0.310058	0.288927	0.286384	0.311823	0.375548	0.494451		
329.0	0.375538	0.365819	0.344104	0.325813	0.324032	0.348051	0.408485	0.522004		
330.0	0.404619	0.396637	0.378645	0.363285	0.362052	0.384147	0.440631	0.548241		
331.0	0.434956	0.42876	0.414557	0.402047	0.400993	0.420466	0.472122	0.57312		
332.0	0.46664	0.462058	0.451266	0.441206	0.439865	0.456067	0.502142	0.59601		
333.0	0.489033	0.485354	0.476434	0.467536	0.465476	0.4789	0.520727	0.609649		
334.0	0.505388	0.502195	0.494225	0.4857	0.482679	0.49372	0.532265	0.617703		
335.0	0.521378	0.518535	0.511229	0.502857	0.498834	0.507613	0.543072	0.62522		
336.0	0.537178	0.534581	0.527713	0.519318	0.514266	0.520889	0.553417	0.6324		
337.0	0.552601	0.550162	0.543541	0.534972	0.528872	0.533449	0.563207	0.639166		
338.0	0.567603	0.565253	0.558729	0.549868	0.542716	0.545352	0.572482	0.645544		
339.0	0.582161	0.579849	0.573308	0.56407	0.555873	0.556663	0.581295	0.651569		
340.0	0.595897	0.593577	0.586917	0.577221	0.567981	0.567023	0.589303	0.656956		
341.0	0.608349	0.605978	0.599104	0.58887	0.578586	0.575975	0.596075	0.661345		
342.0	0.620358	0.617923	0.610808	0.600028	0.588738	0.584554	0.60256	0.665516		
343.0	0.631914	0.629406	0.622036	0.610717	0.598465	0.592784	0.608776	0.669483		
344.0	0.643009	0.640424	0.632797	0.620955	0.60779	0.600686	0.614739	0.67326		
345.0	0.65316	0.6505	0.642624	0.630295	0.616296	0.607903	0.620194	0.67672		
346.0	0.662585	0.659853	0.651742	0.63896	0.624194	0.614615	0.625275	0.679943		
347.0	0.671618	0.668818	0.660487	0.647282	0.631799	0.621093	0.630181	0.68304		
348.0	0.680259	0.677396	0.668863	0.655269	0.639117	0.627345	0.634919	0.686022		
349.0	0.688513	0.685593	0.676879	0.66293	0.646159	0.63338	0.6395	0.688899		
350.0	0.696388	0.693418	0.684543	0.670276	0.652935	0.639207	0.643932	0.691678		
351.0	0.703897	0.700885	0.691869	0.677318	0.659455	0.644834	0.648224	0.69437		
352.0	0.711058	0.708009	0.698872	0.68407	0.665731	0.650272	0.652383	0.696981		
353.0	0.717888	0.714809	0.705569	0.690547	0.671773	0.655529	0.656418	0.699519		
354.0	0.724405	0.721302	0.711977	0.696763	0.677595	0.660615	0.660338	0.701992		
355.0	0.730387	0.727266	0.717877	0.702509	0.683009	0.665393	0.664091	0.704448		
356.0	0.736063	0.73293	0.723491	0.707994	0.6882	0.670002	0.667743	0.706869		
357.0	0.741515	0.738373	0.728896	0.71329	0.693231	0.674488	0.671314	0.709246		
358.0	0.746758	0.74361	0.734106	0.718409	0.698111	0.678858	0.674809	0.711584		
359.0	0.751811	0.748661	0.739137	0.723364	0.70285	0.683118	0.678234	0.713886		
360.0	0.756688	0.753537	0.744001	0.728167	0.707458	0.687278	0.681595	0.716158		
361.0	0.761399	0.75825	0.74871	0.732826	0.711943	0.691345	0.684898	0.718402		
362.0	0.765955	0.76281	0.753272	0.73735	0.716313	0.695324	0.688148	0.720625		
363.0	0.770363	0.767224	0.757694	0.741747	0.720573	0.699222	0.69135	0.722828		
364.0	0.774629	0.771499	0.761983	0.746021	0.724731	0.703043	0.694508	0.725014		
365.0	0.777518	0.774384	0.764853	0.74884	0.727416	0.70544	0.696401	0.726226		
366.0	0.777464	0.774299	0.764675	0.748512	0.726888	0.70469	0.695463	0.725226		
367.0	0.777415	0.774221	0.764512	0.748209	0.726398	0.703992	0.694582	0.724274		
368.0	0.777369	0.774149	0.764361	0.747929	0.725946	0.703346	0.693757	0.723369		
369.0	0.777322	0.774078	0.764219	0.74767	0.725531	0.702749	0.692988	0.722509		
370.0	0.777269	0.774004	0.764083	0.747429	0.725148	0.702198	0.692269	0.721687		
371.0	0.777211	0.773928	0.76395	0.747204	0.724795	0.70169	0.691594	0.720895		
372.0	0.777148	0.773849	0.763823	0.746996	0.724472	0.701222	0.690958	0.720127		
373.0	0.777083	0.77377	0.763702	0.746804	0.724177	0.70079	0.690356	0.719375		
374.0	0.777018	0.773693	0.76359	0.746629	0.72391	0.700391	0.689781	0.718633		
375.0	0.776956	0.773622	0.763488	0.746473	0.72367	0.700022	0.689229	0.717896		
376.0	0.777689	0.774355	0.76422	0.747191	0.724335	0.700551	0.689485	0.717776		
377.0	0.780222	0.776911	0.766836	0.749876	0.727032	0.703091	0.691562	0.719074		
378.0	0.782702	0.779413	0.7694	0.752512	0.729685	0.705591	0.693599	0.720327		
379.0	0.785132	0.781867	0.771917	0.755102	0.732297	0.70805	0.695591	0.72153		
380.0	0.787519	0.784277	0.77439	0.757651	0.734866	0.710465	0.697534	0.722677		
381.0	0.789867	0.786649	0.776824	0.760158	0.737392	0.712833	0.699421	0.723763		
382.0	0.79218	0.788984	0.77922	0.762626	0.739876	0.715153	0.701252	0.724787		
383.0	0.794458	0.791285	0.781581	0.765056	0.742316	0.717424	0.703025	0.725749		
384.0	0.796703	0.793551	0.783905	0.767447	0.744715	0.719645	0.70474	0.72665		
385.0	0.798914	0.795784	0.786194	0.769799	0.74707	0.721817	0.706398	0.727491		
386.0	0.801093	0.797983	0.788448	0.772114	0.749384	0.723941	0.708	0.728272		
387.0	0.803237	0.800148	0.790666	0.77439	0.751655	0.726016	0.709546	0.728996		
388.0	0.805696	0.802631	0.793216	0.777019	0.7543	0.728482	0.711482	0.730074		
389.0	0.808454	0.805418	0.796083	0.779984	0.757304	0.731324	0.713793	0.731493		
390.0	0.81116	0.808153	0.798896	0.782892	0.760247	0.734101	0.716034	0.732843		
391.0	0.813814	0.810836	0.801655	0.785743	0.763131	0.736815	0.718208	0.734127		
392.0	0.816415	0.813465	0.80436	0.78854	0.765958	0.739469	0.720319	0.735348		
393.0	0.818961	0.816039	0.80701	0.791281	0.768731	0.74207	0.722376	0.736512		
394.0	0.821451	0.818557	0.809604	0.793969	0.771453	0.744622	0.724379	0.737614		
395.0	0.823887	0.821021	0.812146	0.796605	0.774125	0.747124	0.726326	0.738649		
396.0	0.826271	0.823434	0.814637	0.799193	0.77675	0.749578	0.728214	0.739605		
397.0	0.828606	0.825798	0.81708	0.801733	0.779329	0.751983	0.730038	0.740474		
398.0	0.830896	0.828117	0.819478	0.804228	0.781863	0.754336	0.73179	0.741239		
399.0	0.833143	0.830393	0.821833	0.806681	0.784351	0.756636	0.733464	0.741888		
400.0	0.835349	0.832628	0.824146	0.80909	0.786793	0.758877	0.735047	0.742401		
401.0	0.837006	0.834304	0.825873	0.810867	0.788538	0.760335	0.735734	0.741943		
402.0	0.838633	0.83595	0.827568	0.812609	0.790242	0.761732	0.736315	0.741313		
403.0	0.840229	0.837563	0.829227	0.814311	0.791896	0.763054	0.736765	0.740476		
404.0	0.841787	0.839139	0.830845	0.815964	0.793485	0.76428	0.737051	0.739384		
405.0	0.843299	0.840666	0.832408	0.81755	0.794988	0.765379	0.737126	0.737975		
406.0	0.844751	0.84213	0.833898	0.819047	0.796374	0.766308	0.736932	0.736178		
407.0	0.846123	0.843509	0.835293	0.820427	0.797608	0.767026	0.736418	0.733933		
408.0	0.847389	0.844778	0.836563	0.821658	0.798655	0.767491	0.735531	0.731177		
409.0	0.848515	0.845902	0.837671	0.822699	0.799468	0.767651	0.734212	0.727842		
410.0	0.849456	0.846835	0.83857	0.823501	0.799997	0.767454	0.732402	0.723858		
411.0	0.850156	0.84752	0.839201	0.824002	0.800182	0.766844	0.730043	0.719159		
412.0	0.850546	0.847888	0.839495	0.824136	0.799963	0.765774	0.727096	0.713703		
413.0	0.850546	0.847859	0.839376	0.823838	0.799295	0.764227	0.723562	0.707485		
414.0	0.850375	0.847661	0.839094	0.823401	0.798542	0.762655	0.71995	0.70098		
415.0	0.849799	0.847064	0.838438	0.822649	0.797582	0.760987	0.716188	0.694066		
416.0	0.848746	0.846009	0.837388	0.821633	0.796546	0.759399	0.712395	0.686732		
417.0	0.847503	0.844804	0.836318	0.820813	0.795959	0.758394	0.708909	0.679081		
418.0	0.846718	0.844118	0.83594	0.820925	0.796498	0.758464	0.705906	0.671015		
419.0	0.847335	0.844884	0.83713	0.822701	0.798644	0.759773	0.703198	0.662181		
420.0	0.850062	0.847752	0.840369	0.826355	0.802315	0.761986	0.700225	0.652082		
421.0	0.85491	0.852669	0.84544	0.831479	0.806974	0.764509	0.696305	0.640374		
422.0	0.861172	0.858911	0.851584	0.837327	0.811943	0.766738	0.690806	0.627098		
423.0	0.867879	0.865535	0.857952	0.843185	0.816662	0.768213	0.683217	0.612875		
424.0	0.874272	0.871826	0.863936	0.848588	0.820788	0.768638	0.67316	0.599104		
425.0	0.879962	0.877421	0.869242	0.853321	0.824166	0.767837	0.660369	0.587997		
426.0	0.884848	0.88223	0.873804	0.85734	0.82676	0.765706	0.644701	0.582309		
427.0	0.888981	0.886302	0.877667	0.860685	0.828586	0.762156	0.626202	0.58466		
428.0	0.892272	0.889543	0.880718	0.863212	0.829456	0.756909	0.605293	0.596186		
429.0	0.894849	0.892074	0.883065	0.86501	0.829424	0.749906	0.582958	0.615871		
430.0	0.89701	0.894193	0.885002	0.866365	0.828749	0.741249	0.560612	0.641391		
431.0	0.898838	0.895977	0.886598	0.867335	0.82745	0.730813	0.5403	0.669625		
432.0	0.900399	0.897494	0.887913	0.867963	0.82553	0.718459	0.524507	0.697826		
433.0	0.901749	0.898795	0.888995	0.868288	0.822981	0.704047	0.5157	0.724158		
434.0	0.902931	0.899924	0.889882	0.868334	0.819775	0.687438	0.51571	0.747734		
435.0	0.903971	0.900905	0.890595	0.868109	0.815855	0.668536	0.525166	0.7683		
436.0	0.904883	0.90175	0.89114	0.867605	0.811143	0.647366	0.54322	0.785944		
437.0	0.905674	0.902467	0.891524	0.866812	0.805547	0.624184	0.567754	0.800931		
438.0	0.906352	0.903062	0.891746	0.865712	0.798957	0.599546	0.596101	0.813609		
439.0	0.90692	0.903537	0.891804	0.864282	0.791249	0.574465	0.625721	0.82432		
440.0	0.90738	0.903892	0.891693	0.862495	0.782281	0.550426	0.654666	0.833385		
441.0	0.907733	0.90413	0.891409	0.86032	0.771905	0.529367	0.681681	0.841083		
442.0	0.90798	0.904246	0.890943	0.857717	0.759955	0.513417	0.706138	0.84765		
443.0	0.908196	0.904319	0.890366	0.854724	0.746283	0.504391	0.728194	0.853483		
444.0	0.908606	0.904572	0.889903	0.851506	0.730646	0.503638	0.748878	0.859284		
445.0	0.90889	0.904681	0.889204	0.847665	0.71277	0.512119	0.766928	0.864365		
446.0	0.909043	0.904637	0.888249	0.843117	0.692558	0.528924	0.78262	0.868843		
447.0	0.90906	0.904432	0.887016	0.837772	0.670046	0.552111	0.79626	0.872822		
448.0	0.908933	0.904056	0.885477	0.831524	0.645479	0.579301	0.808137	0.876385		
449.0	0.908653	0.903496	0.883601	0.824247	0.619411	0.608241	0.818516	0.879599		
450.0	0.90821	0.902738	0.88135	0.815795	0.592769	0.637151	0.827637	0.882525		
451.0	0.90759	0.901763	0.878679	0.806007	0.566972	0.664798	0.835691	0.885204		
452.0	0.906775	0.900546	0.875533	0.794698	0.543864	0.690464	0.842837	0.887672		
453.0	0.905746	0.899063	0.871851	0.781672	0.525509	0.713822	0.849216	0.889958		
454.0	0.904478	0.89728	0.867554	0.766724	0.513877	0.734801	0.854936	0.892086		
455.0	0.902948	0.895166	0.862563	0.749666	0.510323	0.753495	0.860094	0.894076		
456.0	0.901122	0.892675	0.856775	0.730346	0.515284	0.770081	0.864769	0.895945		
457.0	0.898967	0.889762	0.850078	0.708696	0.528127	0.784771	0.869027	0.897708		
458.0	0.896437	0.886366	0.842336	0.684771	0.547382	0.797786	0.872923	0.899376		
459.0	0.893489	0.882428	0.833405	0.658868	0.571091	0.809336	0.876506	0.90096		
460.0	0.890068	0.877876	0.823138	0.63167	0.597164	0.819562	0.879806	0.902472		
461.0	0.886114	0.872626	0.811348	0.604103	0.624009	0.828681	0.882866	0.903918		
462.0	0.881545	0.866568	0.797822	0.577526	0.650432	0.836854	0.885716	0.905303		
463.0	0.876279	0.859592	0.782368	0.553707	0.675585	0.844203	0.88838	0.906633		
464.0	0.870213	0.85156	0.764786	0.534547	0.699005	0.850841	0.89088	0.907914		
465.0	0.863227	0.842317	0.744919	0.52183	0.720469	0.856856	0.893232	0.909148		
466.0	0.85519	0.831695	0.722693	0.51677	0.739937	0.862331	0.895453	0.91034		
467.0	0.845949	0.819503	0.69816	0.519763	0.757483	0.867332	0.897555	0.911493		
468.0	0.835329	0.805535	0.671576	0.53029	0.773239	0.871918	0.899551	0.91261		
469.0	0.82314	0.789581	0.643498	0.547084	0.787362	0.876137	0.90145	0.913693		
470.0	0.809169	0.771438	0.614843	0.568461	0.800024	0.880034	0.90326	0.914742		
471.0	0.793208	0.750948	0.586958	0.592652	0.811382	0.883644	0.904989	0.915761		
472.0	0.775051	0.728027	0.561546	0.618093	0.821588	0.886998	0.906643	0.916748		
473.0	0.754532	0.702732	0.540506	0.64355	0.830778	0.890124	0.908227	0.917707		
474.0	0.731548	0.67532	0.52562	0.668163	0.839076	0.893046	0.909747	0.918636		
475.0	0.706155	0.646379	0.518211	0.691375	0.846587	0.895784	0.911208	0.919537		
476.0	0.678594	0.616848	0.518815	0.712902	0.853407	0.898355	0.912611	0.92041		
477.0	0.649435	0.588143	0.527137	0.732587	0.859569	0.900733	0.913921	0.921215		
478.0	0.619888	0.562464	0.542311	0.750049	0.864767	0.902599	0.91482	0.921643		
479.0	0.591248	0.541397	0.562167	0.765781	0.86951	0.904354	0.91568	0.922049		
480.0	0.565207	0.526619	0.584998	0.779928	0.873851	0.906008	0.916503	0.92243		
481.0	0.543611	0.519287	0.609273	0.792639	0.877837	0.90757	0.917291	0.922786		
482.0	0.52815	0.51978	0.633772	0.804064	0.881505	0.909047	0.918043	0.923115		
483.0	0.520013	0.527636	0.657623	0.814344	0.884891	0.910446	0.918761	0.923414		
484.0	0.519639	0.541711	0.680266	0.823611	0.888024	0.911771	0.919444	0.923682		
485.0	0.526643	0.560468	0.701384	0.831981	0.89093	0.913028	0.920093	0.923916		
486.0	0.539945	0.582279	0.720832	0.839557	0.893631	0.91422	0.920706	0.924111		
487.0	0.558058	0.605681	0.7386	0.846433	0.896148	0.915353	0.921284	0.924267		
488.0	0.579378	0.629481	0.754742	0.852687	0.898497	0.916427	0.921825	0.924376		
489.0	0.602432	0.652809	0.769359	0.85839	0.900693	0.917447	0.922327	0.924436		
490.0	0.626023	0.675093	0.782575	0.863605	0.902751	0.918413	0.922789	0.924441		
491.0	0.649256	0.695992	0.794518	0.868385	0.90468	0.919329	0.923208	0.924383		
492.0	0.67153	0.71534	0.805315	0.872776	0.906493	0.920194	0.923582	0.924258		
493.0	0.692481	0.733095	0.815085	0.876819	0.908196	0.92101	0.923908	0.924054		
494.0	0.711923	0.749292	0.823938	0.880551	0.909799	0.921776	0.924181	0.923765		
495.0	0.729799	0.764013	0.831974	0.884002	0.911308	0.922494	0.924397	0.923378		
496.0	0.746261	0.777471	0.839342	0.887226	0.912739	0.923165	0.92455	0.922877		
497.0	0.762257	0.790503	0.846537	0.890437	0.914174	0.923811	0.924623	0.922205		
498.0	0.776686	0.802235	0.853065	0.893406	0.915519	0.9244	0.924619	0.921386		
499.0	0.789689	0.812806	0.859005	0.896158	0.916779	0.924932	0.924527	0.920398		
500.0	0.801405	0.822344	0.864422	0.898711	0.917958	0.925403	0.924337	0.919215		
501.0	0.811968	0.830962	0.869372	0.901084	0.91906	0.925811	0.924037	0.917808		
502.0	0.821507	0.838767	0.873908	0.903292	0.920087	0.92615	0.923614	0.916142		
