wavelength	0.0	15.0	30.0	45.0	60.0	75.0	89.0
300.0	0.262185	0.241185	0.289158	0.301479	0.420496	0.522329	0.956861
301.0	0.24894	0.221673	0.298832	0.318588	0.397508	0.51094	0.955642
302.0	0.23126	0.204221	0.302813	0.336839	0.369076	0.498903	0.954335
303.0	0.211266	0.191762	0.299566	0.347624	0.341808	0.486429	0.952974
304.0	0.191453	0.186487	0.288773	0.34639	0.316211	0.473353	0.951541
305.0	0.174793	0.189446	0.271236	0.333621	0.291708	0.459812	0.950059
306.0	0.164248	0.199826	0.248434	0.311947	0.267765	0.446038	0.948567
307.0	0.162233	0.215035	0.222776	0.284376	0.244752	0.432877	0.947172
308.0	0.169138	0.231026	0.197111	0.253067	0.222439	0.420488	0.945903
309.0	0.182859	0.243393	0.17448	0.219475	0.198951	0.407915	0.944682
310.0	0.19974	0.248598	0.159282	0.188463	0.17261	0.394827	0.94353
311.0	0.215254	0.244249	0.156566	0.174604	0.14261	0.382043	0.942621
312.0	0.227453	0.232645	0.172352	0.203656	0.118185	0.376789	0.942722
313.0	0.234126	0.215443	0.202068	0.258078	0.101887	0.37926	0.943718
314.0	0.232181	0.191179	0.23378	0.28003	0.088246	0.388579	0.945653
315.0	0.219888	0.16057	0.256846	0.257884	0.078382	0.408149	0.948909
316.0	0.200008	0.13118	0.266822	0.218291	0.077182	0.431608	0.952273
317.0	0.175298	0.108793	0.26377	0.1779	0.082103	0.453912	0.955164
318.0	0.146802	0.097557	0.2474	0.136279	0.096196	0.483774	0.958697
319.0	0.117858	0.103538	0.21729	0.09281	0.125048	0.52523	0.963186
320.0	0.096713	0.127697	0.179723	0.05819	0.157231	0.561025	0.966775
321.0	0.088989	0.163397	0.139833	0.033825	0.18649	0.588098	0.96934
322.0	0.097517	0.202783	0.099513	0.015448	0.219988	0.615424	0.971816
323.0	0.123083	0.23753	0.065642	0.003227028	0.263149	0.647097	0.974566
324.0	0.160162	0.26008	0.053974	0.0004154771	0.306562	0.675784	0.976957
325.0	0.199581	0.268015	0.078202	0.005906232	0.344662	0.69884	0.978817
326.0	0.23425	0.261916	0.137888	0.018692	0.38192	0.719921	0.980472
327.0	0.258833	0.242389	0.204453	0.040098	0.422474	0.74167	0.982138
328.0	0.269673	0.210881	0.238115	0.070498	0.464804	0.763279	0.983755
329.0	0.265711	0.169874	0.227602	0.109477	0.507454	0.784071	0.985277
330.0	0.24744	0.123026	0.187774	0.155816	0.549098	0.803547	0.986675
331.0	0.216204	0.075949	0.137069	0.207808	0.588764	0.821443	0.987937
332.0	0.173961	0.03728	0.088768	0.264597	0.626804	0.838134	0.989097
333.0	0.126452	0.01912	0.055466	0.316787	0.657777	0.851446	0.990014
334.0	0.080167	0.028863	0.040016	0.360767	0.681299	0.861416	0.990697
335.0	0.040979	0.067564	0.040384	0.401975	0.702283	0.870272	0.991301
336.0	0.016822	0.126452	0.055701	0.44381	0.72324	0.879101	0.9919
337.0	0.016226	0.184	0.083976	0.48354	0.742675	0.887277	0.992452
338.0	0.042706	0.216804	0.122311	0.520819	0.760603	0.894822	0.992959
339.0	0.091374	0.21338	0.167546	0.555451	0.777073	0.901765	0.993424
340.0	0.148073	0.180109	0.216676	0.58734	0.792141	0.908135	0.99385
341.0	0.193405	0.135496	0.266948	0.61634	0.805802	0.913938	0.994237
342.0	0.210897	0.099018	0.316489	0.642679	0.818227	0.919246	0.99459
343.0	0.195445	0.082979	0.364173	0.666715	0.829629	0.924145	0.994916
344.0	0.15724	0.090614	0.409441	0.688824	0.84021	0.928713	0.995218
345.0	0.11692	0.11872	0.452006	0.709277	0.850102	0.932998	0.995501
346.0	0.093909	0.160976	0.491283	0.727964	0.859238	0.936973	0.995762
347.0	0.096981	0.211075	0.52724	0.74503	0.867681	0.940661	0.996002
348.0	0.124111	0.26411	0.560033	0.760653	0.875506	0.944088	0.996224
349.0	0.167833	0.316738	0.589877	0.774989	0.882779	0.947275	0.996429
350.0	0.220245	0.366968	0.617024	0.788183	0.889559	0.95024	0.996616
351.0	0.27541	0.413829	0.641758	0.800374	0.895898	0.952996	0.996787
352.0	0.32958	0.456944	0.664345	0.811682	0.901844	0.95555	0.996942
353.0	0.38073	0.4963	0.685025	0.822208	0.907429	0.957904	0.997078
354.0	0.427966	0.532093	0.704027	0.832045	0.912684	0.960052	0.997196
355.0	0.471147	0.564686	0.721595	0.841294	0.917641	0.961985	0.997292
356.0	0.510452	0.594433	0.737916	0.850022	0.922311	0.963678	0.997362
357.0	0.545997	0.62149	0.753024	0.858218	0.926669	0.965088	0.9974
358.0	0.577989	0.64602	0.766956	0.865871	0.930692	0.96616	0.997399
359.0	0.606663	0.668176	0.779741	0.872969	0.934344	0.966816	0.997347
360.0	0.63226	0.688108	0.79141	0.879503	0.937592	0.96696	0.997228
361.0	0.655016	0.70596	0.801999	0.885469	0.940394	0.966451	0.99702
362.0	0.675146	0.721855	0.811533	0.890854	0.942688	0.965094	0.996688
363.0	0.692836	0.735902	0.820037	0.895646	0.944401	0.962619	0.996182
364.0	0.708254	0.748201	0.827531	0.899826	0.945423	0.958615	0.995425
365.0	0.72154	0.758829	0.834027	0.903372	0.945617	0.95251	0.994294
366.0	0.732667	0.767728	0.839452	0.906209	0.944783	0.943471	0.9926
367.0	0.741947	0.775137	0.843933	0.908354	0.942666	0.930244	0.990028
368.0	0.749756	0.781359	0.84764	0.909833	0.938933	0.911021	0.986067
369.0	0.756408	0.786644	0.850708	0.910627	0.933093	0.883134	0.979864
370.0	0.762163	0.791198	0.853235	0.910668	0.924453	0.842788	0.970069
371.0	0.767257	0.795208	0.855305	0.909854	0.912096	0.784961	0.954845
372.0	0.771882	0.798821	0.856961	0.908005	0.894736	0.703879	0.932959
373.0	0.776195	0.802153	0.85822	0.904883	0.870698	0.595751	0.907767
374.0	0.780326	0.805298	0.85907	0.90017	0.837827	0.465034	0.891035
375.0	0.784364	0.808309	0.85945	0.89342	0.793414	0.332972	0.892854
376.0	0.788369	0.811211	0.859274	0.884101	0.73451	0.236566	0.907955
377.0	0.792085	0.81375	0.858248	0.871462	0.658518	0.205877	0.92554
378.0	0.795338	0.815742	0.856099	0.854619	0.564745	0.238722	0.940327
379.0	0.798039	0.817071	0.85258	0.832591	0.456726	0.308504	0.95155
380.0	0.800071	0.81759	0.84738	0.804226	0.344348	0.388909	0.959867
381.0	0.801321	0.817151	0.84016	0.768357	0.243554	0.464831	0.966065
382.0	0.801666	0.81559	0.830536	0.723968	0.171074	0.530613	0.970762
383.0	0.800947	0.812701	0.818058	0.670451	0.136692	0.585506	0.974389
384.0	0.799013	0.808281	0.802276	0.608152	0.139136	0.630687	0.977245
385.0	0.795686	0.802096	0.782722	0.538814	0.16903	0.667795	0.979535
386.0	0.790766	0.793894	0.758977	0.466002	0.214788	0.698361	0.981402
387.0	0.784063	0.78343	0.730749	0.394871	0.266836	0.723715	0.982948
388.0	0.775389	0.770475	0.697963	0.331357	0.318966	0.74493	0.98425
389.0	0.7647	0.754947	0.660929	0.280641	0.368102	0.763079	0.985384
390.0	0.751837	0.736708	0.620328	0.245922	0.412922	0.778839	0.986394
391.0	0.736673	0.715717	0.577363	0.227907	0.453026	0.79268	0.98731
392.0	0.719174	0.692086	0.533681	0.224924	0.488585	0.805008	0.988158
393.0	0.699409	0.666104	0.491243	0.233963	0.519999	0.816161	0.988951
394.0	0.677615	0.638302	0.452144	0.251603	0.5477	0.826422	0.989668
395.0	0.654156	0.609381	0.418165	0.274702	0.572179	0.83606	0.990169
396.0	0.629557	0.580219	0.390621	0.300736	0.593861	0.845286	0.990021
397.0	0.6045	0.551822	0.370199	0.327827	0.613108	0.854165	0.988806
398.0	0.5797	0.525131	0.356863	0.354727	0.630277	0.862201	0.987594
399.0	0.555933	0.501027	0.350073	0.380603	0.645646	0.86706	0.987405
400.0	0.533896	0.480165	0.348903	0.40499	0.659493	0.863314	0.987762
401.0	0.514186	0.462956	0.352287	0.42773	0.672181	0.850162	0.988225
402.0	0.497258	0.449573	0.359145	0.448772	0.684037	0.840019	0.988661
403.0	0.483295	0.439891	0.368505	0.468163	0.695316	0.838249	0.989044
404.0	0.472325	0.433627	0.37954	0.485976	0.706282	0.840846	0.989377
405.0	0.464227	0.430377	0.391566	0.502295	0.717224	0.844702	0.98967
406.0	0.458759	0.429683	0.404086	0.517251	0.728471	0.848639	0.989929
407.0	0.455612	0.43107	0.416694	0.53094	0.740267	0.852308	0.990162
408.0	0.454438	0.434087	0.429114	0.543485	0.752294	0.85564	0.990372
409.0	0.454891	0.438337	0.441161	0.555	0.762429	0.858655	0.990566
410.0	0.456619	0.443447	0.452684	0.565589	0.765687	0.861393	0.990746
411.0	0.459339	0.449142	0.463617	0.575354	0.759208	0.863893	0.990914
412.0	0.462793	0.455189	0.473913	0.58439	0.749244	0.866191	0.991074
413.0	0.466745	0.461385	0.483545	0.592803	0.742604	0.868323	0.991227
414.0	0.471039	0.467613	0.492544	0.600736	0.740113	0.870336	0.991377
415.0	0.475588	0.473825	0.501001	0.608417	0.740325	0.872308	0.991527
416.0	0.480288	0.479954	0.508947	0.615999	0.741966	0.874261	0.991679
417.0	0.485058	0.48595	0.516409	0.62367	0.744297	0.87621	0.991829
418.0	0.489824	0.491768	0.523416	0.631702	0.746944	0.878171	0.991975
419.0	0.494532	0.497384	0.529997	0.640458	0.749712	0.880155	0.992109
420.0	0.499145	0.502777	0.536177	0.650397	0.752505	0.882165	0.992223
421.0	0.503633	0.507941	0.541992	0.661925	0.755281	0.884191	0.992305
422.0	0.507977	0.51287	0.547467	0.674867	0.758019	0.886201	0.992349
423.0	0.512159	0.517561	0.55263	0.68741	0.760712	0.888135	0.992352
424.0	0.516178	0.522023	0.557517	0.695877	0.763365	0.8899	0.992323
425.0	0.520025	0.526257	0.562157	0.697886	0.765983	0.891376	0.992275
426.0	0.5237	0.530271	0.566591	0.695174	0.768579	0.892449	0.992222
427.0	0.527206	0.534074	0.570866	0.691138	0.771163	0.893045	0.992174
428.0	0.530539	0.537667	0.575039	0.687781	0.773748	0.893174	0.992137
429.0	0.5337	0.541058	0.579199	0.685626	0.776356	0.892932	0.992112
430.0	0.536708	0.544267	0.583486	0.684569	0.779013	0.892464	0.992099
431.0	0.539583	0.547321	0.588103	0.684354	0.781742	0.891917	0.992096
432.0	0.54235	0.550245	0.593351	0.68475	0.78456	0.891399	0.992102
433.0	0.545022	0.553058	0.599638	0.685583	0.787469	0.890977	0.992116
434.0	0.54762	0.555787	0.607467	0.686736	0.79045	0.890683	0.992135
435.0	0.550158	0.55845	0.617241	0.688122	0.793449	0.89052	0.992159
436.0	0.552646	0.561072	0.628773	0.689685	0.796389	0.89048	0.992187
437.0	0.555091	0.563678	0.640651	0.691385	0.799156	0.890548	0.992218
438.0	0.557502	0.566305	0.650464	0.693193	0.801623	0.890708	0.992251
439.0	0.559887	0.569011	0.656509	0.695092	0.803678	0.890945	0.992287
440.0	0.562249	0.571877	0.65901	0.697065	0.805258	0.891244	0.992323
441.0	0.5646	0.575047	0.659363	0.699106	0.80637	0.891595	0.992362
442.0	0.566963	0.578744	0.658879	0.701211	0.80708	0.891986	0.992401
443.0	0.569377	0.583301	0.65833	0.703375	0.807493	0.892408	0.992441
444.0	0.571905	0.589143	0.658037	0.705589	0.807713	0.89285	0.992481
445.0	0.57466	0.59667	0.658068	0.707838	0.807824	0.893294	0.992521
446.0	0.577864	0.60593	0.658401	0.710121	0.807893	0.893732	0.992559
447.0	0.581866	0.616178	0.658974	0.712445	0.807961	0.894157	0.992597
448.0	0.587104	0.625899	0.659715	0.714809	0.808045	0.89456	0.992633
449.0	0.59397	0.633678	0.66056	0.717227	0.808149	0.894938	0.992667
450.0	0.602429	0.639017	0.661453	0.719702	0.808268	0.895284	0.9927
451.0	0.611687	0.642287	0.662343	0.722232	0.808391	0.895597	0.992731
452.0	0.62041	0.644162	0.663194	0.724806	0.808506	0.895875	0.99276
453.0	0.627483	0.645215	0.663971	0.727395	0.808599	0.896118	0.992788
454.0	0.632546	0.645819	0.664649	0.729949	0.808661	0.896326	0.992815
455.0	0.63587	0.646181	0.665211	0.732403	0.808679	0.896502	0.992841
456.0	0.637941	0.646403	0.665641	0.734687	0.808648	0.89665	0.992867
457.0	0.639191	0.646527	0.66593	0.73674	0.80856	0.896775	0.992892
458.0	0.63992	0.646567	0.666077	0.738518	0.808411	0.896886	0.992918
459.0	0.640297	0.646503	0.666064	0.739982	0.808186	0.896984	0.992943
460.0	0.640465	0.646366	0.66595	0.741162	0.807914	0.897095	0.992968
461.0	0.640486	0.646148	0.665747	0.74208	0.807595	0.897228	0.992994
462.0	0.640397	0.645844	0.665499	0.742776	0.807239	0.8974	0.993021
463.0	0.640209	0.645445	0.665243	0.743277	0.80685	0.897619	0.993047
464.0	0.639933	0.644951	0.665045	0.743622	0.806441	0.897894	0.993072
465.0	0.63957	0.644359	0.664973	0.743843	0.806023	0.898231	0.993097
466.0	0.639115	0.643665	0.665102	0.743962	0.805606	0.89863	0.993121
467.0	0.63858	0.642886	0.665528	0.744012	0.805218	0.899092	0.993143
468.0	0.637962	0.642031	0.666326	0.744008	0.804875	0.899608	0.993164
469.0	0.63727	0.641121	0.667561	0.743968	0.804602	0.90017	0.993183
470.0	0.636524	0.640199	0.669278	0.743913	0.804433	0.900765	0.993202
471.0	0.63574	0.6393	0.671464	0.743853	0.804391	0.901379	0.993219
472.0	0.634947	0.638482	0.674074	0.743806	0.804506	0.901997	0.993235
473.0	0.634218	0.637849	0.677058	0.743809	0.804827	0.902615	0.993252
474.0	0.633547	0.637417	0.680255	0.743847	0.805338	0.903211	0.993268
475.0	0.632977	0.637252	0.683531	0.743927	0.806039	0.903771	0.993283
476.0	0.632642	0.637513	0.686834	0.744119	0.806987	0.904311	0.993299
477.0	0.632518	0.638176	0.690006	0.744389	0.808121	0.904811	0.993316
478.0	0.632654	0.63928	0.692969	0.744744	0.809411	0.905268	0.993332
479.0	0.633066	0.64082	0.695678	0.745182	0.810822	0.905684	0.993349
480.0	0.633762	0.642765	0.698104	0.745693	0.812303	0.906058	0.993366
481.0	0.63471	0.645031	0.700228	0.746249	0.813789	0.906384	0.993382
482.0	0.635886	0.64754	0.702069	0.746832	0.815237	0.906666	0.993397
483.0	0.637219	0.650161	0.703625	0.747395	0.816585	0.906895	0.99341
484.0	0.638642	0.652778	0.70491	0.7479	0.817789	0.907068	0.99342
485.0	0.640099	0.655289	0.705943	0.748318	0.818821	0.907181	0.993426
486.0	0.641492	0.657574	0.706721	0.748596	0.819644	0.907227	0.993428
487.0	0.64277	0.659568	0.707261	0.74871	0.820251	0.907203	0.993426
488.0	0.643896	0.661234	0.707581	0.748649	0.820645	0.907113	0.993418
489.0	0.644697	0.662441	0.707625	0.748303	0.820771	0.906928	0.993403
490.0	0.645326	0.663336	0.707503	0.74779	0.820728	0.906692	0.993385
491.0	0.645633	0.663821	0.707161	0.74701	0.820468	0.906379	0.99336
492.0	0.64562	0.663931	0.706623	0.745963	0.820017	0.905997	0.993329
493.0	0.645305	0.663709	0.705916	0.744657	0.819401	0.905556	0.993293
494.0	0.644696	0.663191	0.705061	0.743088	0.818644	0.905062	0.993253
495.0	0.643818	0.662422	0.704083	0.741255	0.81777	0.904525	0.993207
496.0	0.642697	0.661445	0.70301	0.739156	0.816805	0.903954	0.993158
497.0	0.641395	0.660333	0.70188	0.736801	0.815789	0.903363	0.993106
498.0	0.639953	0.659137	0.70072	0.73419	0.814752	0.902761	0.99305
499.0	0.638438	0.657925	0.699564	0.731329	0.813733	0.90216	0.992992
500.0	0.636937	0.656785	0.698447	0.728237	0.812782	0.901573	0.99293
501.0	0.635528	0.655789	0.697393	0.724925	0.811941	0.901006	0.992867
502.0	0.634334	0.655046	0.696432	0.72144	0.811273	0.900473	0.9928
503.0	0.633475	0.654661	0.695579	0.717835	0.810838	0.899978	0.99273
504.0	0.633087	0.654739	0.694836	0.714177	0.810698	0.899523	0.992657
505.0	0.633334	0.655403	0.694195	0.710589	0.810924	0.899108	0.992578
506.0	0.63436	0.656748	0.693619	0.707206	0.811569	0.898721	0.992493
507.0	0.636311	0.658861	0.693052	0.704207	0.812685	0.898346	0.992401
508.0	0.639303	0.661787	0.692412	0.701815	0.814297	0.897958	0.992301
509.0	0.643411	0.665534	0.691594	0.700263	0.81641	0.897525	0.99219
510.0	0.648673	0.670066	0.690469	0.699826	0.819005	0.897003	0.992069
511.0	0.654935	0.6752	0.688906	0.700685	0.821982	0.896355	0.991939
512.0	0.662183	0.680857	0.686777	0.703105	0.825294	0.895532	0.991801
513.0	0.670111	0.686741	0.683967	0.707143	0.82878	0.894498	0.991659
514.0	0.678458	0.692606	0.680402	0.712802	0.832302	0.893223	0.99152
515.0	0.686919	0.698176	0.676063	0.719962	0.835709	0.891695	0.991391
516.0	0.695146	0.703155	0.670996	0.728375	0.838839	0.889921	0.991283
517.0	0.702834	0.707287	0.66534	0.737726	0.841548	0.887938	0.991206
518.0	0.709694	0.710335	0.659339	0.747645	0.843704	0.885815	0.991172
519.0	0.715485	0.712108	0.653351	0.757744	0.8452	0.883665	0.991189
520.0	0.720013	0.712451	0.6478	0.767689	0.845941	0.881621	0.991263
521.0	0.723115	0.711232	0.643154	0.777199	0.845844	0.879838	0.991394
522.0	0.724677	0.708379	0.639892	0.786053	0.844849	0.878482	0.991577
523.0	0.724606	0.703849	0.638422	0.79409	0.842903	0.877701	0.991804
524.0	0.72286	0.697675	0.63902	0.801218	0.839983	0.877607	0.992063
525.0	0.719402	0.689924	0.641784	0.807387	0.836068	0.878252	0.992342
526.0	0.714218	0.680732	0.646628	0.812576	0.831158	0.879627	0.992628
527.0	0.707343	0.670334	0.653308	0.816799	0.825293	0.881665	0.992912
528.0	0.698831	0.659041	0.661459	0.820068	0.818534	0.884252	0.993185
529.0	0.688823	0.647295	0.670645	0.822412	0.811015	0.88724	0.993442
530.0	0.677483	0.635577	0.680457	0.823862	0.802896	0.89049	0.99368
531.0	0.665042	0.624433	0.690521	0.824432	0.794391	0.89387	0.993895
532.0	0.651878	0.614469	0.700492	0.824155	0.785813	0.897253	0.994088
533.0	0.638398	0.606211	0.710129	0.823044	0.777487	0.90055	0.994257
534.0	0.625086	0.600096	0.719257	0.821104	0.769767	0.903697	0.994405
535.0	0.612484	0.596417	0.727756	0.818345	0.763004	0.906647	0.99453
536.0	0.601144	0.595297	0.735544	0.814764	0.757514	0.909368	0.994635
537.0	0.591589	0.596667	0.742568	0.810367	0.753533	0.911836	0.994719
538.0	0.584219	0.600322	0.748838	0.805146	0.751192	0.914056	0.994785
539.0	0.579327	0.605952	0.754358	0.799087	0.750526	0.91603	0.994833
540.0	0.577043	0.613138	0.759125	0.79221	0.751442	0.91775	0.994863
541.0	0.577324	0.621487	0.763168	0.78451	0.75378	0.91923	0.994876
542.0	0.580008	0.630631	0.766515	0.775984	0.757336	0.920479	0.994872
543.0	0.584784	0.640183	0.769172	0.766684	0.761835	0.921498	0.994852
544.0	0.591293	0.649853	0.771159	0.756655	0.767027	0.922293	0.994815
545.0	0.599164	0.659425	0.772499	0.745955	0.772695	0.922874	0.994761
546.0	0.608001	0.668699	0.7732	0.73469	0.778619	0.923244	0.994691
547.0	0.617447	0.677535	0.773268	0.723001	0.784622	0.923404	0.994602
548.0	0.627188	0.685832	0.772711	0.711062	0.790562	0.923357	0.994496
549.0	0.636966	0.693529	0.771531	0.699075	0.796332	0.923104	0.994371
550.0	0.646578	0.700587	0.769726	0.687281	0.801855	0.922645	0.994226
551.0	0.65585	0.706974	0.76729	0.675948	0.807067	0.921975	0.994061
552.0	0.664664	0.712682	0.76422	0.665363	0.811928	0.921094	0.993874
553.0	0.672932	0.71771	0.76051	0.65581	0.816415	0.919997	0.993665
554.0	0.6806	0.722066	0.756147	0.647537	0.820517	0.918678	0.993432
555.0	0.687632	0.725757	0.751122	0.640774	0.824229	0.917131	0.993175
556.0	0.694006	0.728795	0.74543	0.635694	0.827551	0.91535	0.992892
557.0	0.699706	0.731185	0.739064	0.632388	0.830481	0.913327	0.992584
558.0	0.704728	0.732936	0.73203	0.630879	0.833024	0.911058	0.99225
559.0	0.709087	0.734062	0.724322	0.631124	0.835194	0.908533	0.99189
560.0	0.712787	0.734569	0.715956	0.633007	0.836995	0.905745	0.991504
561.0	0.715835	0.734461	0.706961	0.636359	0.838434	0.902694	0.991096
562.0	0.718236	0.733739	0.697375	0.640971	0.839514	0.899377	0.990667
563.0	0.720005	0.732408	0.687248	0.64662	0.840244	0.895794	0.990222
564.0	0.721156	0.730469	0.67663	0.653103	0.840633	0.891943	0.989765
565.0	0.721698	0.727926	0.665635	0.660186	0.840684	0.887842	0.989304
566.0	0.721639	0.724781	0.654381	0.667663	0.840402	0.883511	0.988846
567.0	0.720985	0.721031	0.642996	0.675357	0.839788	0.878971	0.988402
568.0	0.719739	0.716674	0.631633	0.68312	0.838844	0.874253	0.987982
569.0	0.717904	0.711705	0.620462	0.690831	0.837567	0.869396	0.987596
570.0	0.715478	0.70613	0.609689	0.698368	0.835957	0.864463	0.987256
571.0	0.712463	0.699951	0.599514	0.705652	0.834012	0.859518	0.986971
572.0	0.708857	0.693172	0.590134	0.712629	0.831727	0.854631	0.986751
573.0	0.70466	0.685807	0.581745	0.719251	0.8291	0.84989	0.9866
574.0	0.699871	0.677873	0.574528	0.725485	0.826127	0.845387	0.986523
575.0	0.694493	0.669399	0.568631	0.73131	0.822806	0.841217	0.98652
576.0	0.688532	0.660424	0.564168	0.736708	0.819134	0.837476	0.986586
577.0	0.682001	0.651007	0.561207	0.741666	0.815117	0.834254	0.986718
578.0	0.674904	0.641194	0.559772	0.7462	0.810748	0.831624	0.986908
579.0	0.667261	0.631065	0.559843	0.750307	0.806034	0.829647	0.987147
580.0	0.659108	0.620725	0.56135	0.753986	0.800988	0.828364	0.987425
581.0	0.650473	0.610274	0.564191	0.757249	0.795619	0.827792	0.987734
582.0	0.641405	0.599838	0.568236	0.760102	0.789945	0.827926	0.988064
583.0	0.631968	0.589563	0.573325	0.762553	0.783998	0.828734	0.988408
584.0	0.622229	0.579592	0.579294	0.764609	0.777805	0.83017	0.988757
585.0	0.612273	0.570084	0.585977	0.766279	0.77141	0.83217	0.989107
586.0	0.602203	0.561201	0.593208	0.76757	0.764863	0.834658	0.989452
587.0	0.592123	0.553092	0.600836	0.768489	0.758217	0.837558	0.989789
588.0	0.582153	0.545901	0.608726	0.769043	0.751539	0.840793	0.990115
589.0	0.572445	0.539774	0.616735	0.769234	0.744919	0.844276	0.990428
590.0	0.563141	0.534813	0.624749	0.769067	0.738445	0.84793	0.990726
591.0	0.554378	0.531092	0.632681	0.768544	0.732201	0.851692	0.991008
