wavelength	0.0	15.0	30.0	45.0	60.0	75.0	89.0
300.0	0.100458	0.106692	0.100334	0.019978	0.0004125189	1.391016e-06	2.941696e-09
301.0	0.111401	0.117045	0.102022	0.016204	0.0003057359	1.384808e-06	3.424203e-09
302.0	0.122768	0.127269	0.102586	0.013197	0.0002258852	1.44961e-06	4.04018e-09
303.0	0.134312	0.13698	0.102127	0.010918	0.0001704652	1.576545e-06	4.521419e-09
304.0	0.145858	0.145872	0.100754	0.009262306	0.000133468	1.741687e-06	4.410302e-09
305.0	0.157117	0.153588	0.098425	0.008100638	0.0001091756	1.871782e-06	3.625823e-09
306.0	0.167713	0.159846	0.095011	0.007319977	9.345697e-05	1.84582e-06	2.658877e-09
307.0	0.17697	0.164312	0.090219	0.006817592	8.336965e-05	1.60207e-06	1.878019e-09
308.0	0.184551	0.167106	0.084046	0.006523206	7.717226e-05	1.243834e-06	1.341983e-09
309.0	0.190812	0.168929	0.076994	0.006397739	7.403582e-05	9.165986e-07	9.957496e-10
310.0	0.196228	0.170513	0.069682	0.00639614	7.319707e-05	6.764868e-07	7.749054e-10
311.0	0.201332	0.172524	0.062684	0.006458552	7.35839e-05	5.155251e-07	6.329062e-10
312.0	0.203776	0.172728	0.055412	0.006374433	7.097577e-05	3.955373e-07	5.205838e-10
313.0	0.203474	0.170276	0.048347	0.006063821	6.352289e-05	3.039342e-07	4.270636e-10
314.0	0.202874	0.166806	0.042536	0.005639889	5.352882e-05	2.390684e-07	3.551492e-10
315.0	0.203007	0.162697	0.03818	0.005192835	4.3107e-05	1.928722e-07	2.987919e-10
316.0	0.201593	0.15543	0.034733	0.004686137	3.298967e-05	1.574406e-07	2.536462e-10
317.0	0.1975	0.144829	0.032057	0.00415383	2.447463e-05	1.30242e-07	2.184904e-10
318.0	0.191073	0.132424	0.030218	0.003673015	1.799977e-05	1.082145e-07	1.877159e-10
319.0	0.182345	0.119456	0.029202	0.003264538	1.32556e-05	8.970968e-08	1.594939e-10
320.0	0.170428	0.106632	0.028773	0.002863924	9.862704e-06	7.587862e-08	1.388552e-10
321.0	0.155989	0.094772	0.028796	0.002452795	7.446985e-06	6.568564e-08	1.243675e-10
322.0	0.140959	0.084654	0.029344	0.002059058	5.710819e-06	5.751988e-08	1.125514e-10
323.0	0.126747	0.076555	0.030455	0.001695642	4.44293e-06	5.064667e-08	1.020757e-10
324.0	0.113928	0.070262	0.03199	0.001356452	3.520648e-06	4.535584e-08	9.42435e-11
325.0	0.102875	0.065519	0.0338	0.001053743	2.849128e-06	4.150977e-08	8.910655e-11
326.0	0.093744	0.062163	0.035741	0.0008010259	2.341668e-06	3.848656e-08	8.537063e-11
327.0	0.086564	0.060118	0.037603	0.0006009411	1.945276e-06	3.590887e-08	8.22321e-11
328.0	0.081241	0.059302	0.039049	0.0004480221	1.635212e-06	3.378743e-08	7.983876e-11
329.0	0.077575	0.059613	0.039617	0.000333247	1.389707e-06	3.207083e-08	7.819504e-11
330.0	0.075359	0.060965	0.038817	0.0002477134	1.191599e-06	3.067256e-08	7.719087e-11
331.0	0.074413	0.063286	0.036318	0.0001840269	1.028231e-06	2.950375e-08	7.66799e-11
332.0	0.074707	0.066623	0.032248	0.0001370271	8.929574e-07	2.853867e-08	7.662894e-11
333.0	0.076156	0.071017	0.026978	0.0001033509	7.907694e-07	2.81308e-08	7.808481e-11
334.0	0.078633	0.076456	0.021293	7.907958e-05	7.138076e-07	2.824606e-08	8.110206e-11
335.0	0.082326	0.083146	0.016109	6.131828e-05	6.526295e-07	2.868123e-08	8.518227e-11
336.0	0.087457	0.091177	0.011864	4.813163e-05	6.023219e-07	2.934466e-08	9.012599e-11
337.0	0.094102	0.100208	0.008584928	3.828466e-05	5.621368e-07	3.031905e-08	9.62941e-11
338.0	0.102452	0.109361	0.00615681	3.086395e-05	5.304628e-07	3.163231e-08	1.038905e-10
339.0	0.112697	0.116668	0.004405221	2.522007e-05	5.060803e-07	3.33244e-08	1.131813e-10
340.0	0.124909	0.118858	0.003158629	2.088288e-05	4.880381e-07	3.545131e-08	1.245247e-10
341.0	0.138672	0.112496	0.002277204	1.751856e-05	4.756128e-07	3.807803e-08	1.383456e-10
342.0	0.152457	0.097015	0.001655337	1.488784e-05	4.683035e-07	4.12868e-08	1.551773e-10
343.0	0.162643	0.076326	0.001215961	1.281661e-05	4.658532e-07	4.519187e-08	1.757426e-10
344.0	0.163322	0.055956	0.0009039787	1.117522e-05	4.681303e-07	4.993612e-08	2.009657e-10
345.0	0.149456	0.039317	0.0006807982	9.867464e-06	4.751922e-07	5.570981e-08	2.320863e-10
346.0	0.122694	0.027109	0.0005197509	8.82211e-06	4.872571e-07	6.275523e-08	2.70719e-10
347.0	0.091626	0.018638	0.0004023757	7.983825e-06	5.045985e-07	7.137364e-08	3.189527e-10
348.0	0.064324	0.012894	0.0003158751	7.310134e-06	5.276231e-07	8.195317e-08	3.79562e-10
349.0	0.043866	0.009022191	0.0002514532	6.769716e-06	5.569351e-07	9.49959e-08	4.562399e-10
350.0	0.029729	0.006402213	0.0002029582	6.33864e-06	5.933315e-07	1.111536e-07	5.539411e-10
351.0	0.020279	0.004611876	0.0001660483	5.998944e-06	6.379448e-07	1.313117e-07	6.795724e-10
352.0	0.014014	0.003373975	0.0001376623	5.73693e-06	6.921836e-07	1.566367e-07	8.425958e-10
353.0	0.009839159	0.002506884	0.0001156125	5.54231e-06	7.578461e-07	1.886936e-07	1.056198e-09
354.0	0.007027794	0.001891859	9.833882e-05	5.407817e-06	8.371816e-07	2.295722e-07	1.338758e-09
355.0	0.005106943	0.001449548	8.4679e-05	5.327558e-06	9.330151e-07	2.821305e-07	1.716542e-09
356.0	0.003773021	0.001126853	7.377626e-05	5.29781e-06	1.049143e-06	3.504114e-07	2.228266e-09
357.0	0.002833564	0.0008887001	6.502861e-05	5.31728e-06	1.190239e-06	4.398813e-07	2.929253e-09
358.0	0.002162505	0.0007109283	5.798398e-05	5.387026e-06	1.362753e-06	5.584511e-07	3.903255e-09
359.0	0.00167595	0.0005765553	5.227875e-05	5.50731e-06	1.574458e-06	7.171471e-07	5.27489e-09
360.0	0.001318775	0.0004740141	4.76655e-05	5.683109e-06	1.836484e-06	9.323251e-07	7.238876e-09
361.0	0.001053558	0.0003951093	4.396185e-05	5.923074e-06	2.164702e-06	1.228887e-06	1.010943e-08
362.0	0.0008537315	0.0003336187	4.09804e-05	6.229462e-06	2.576174e-06	1.641037e-06	1.43634e-08
363.0	0.0007015996	0.0002853378	3.861211e-05	6.612854e-06	3.096745e-06	2.22209e-06	2.079527e-08
364.0	0.0005847339	0.0002472126	3.677763e-05	7.087323e-06	3.761713e-06	3.053686e-06	3.073419e-08
365.0	0.0004940907	0.0002169196	3.541012e-05	7.669484e-06	4.618719e-06	4.261415e-06	4.64399e-08
366.0	0.0004233609	0.0001928191	3.447442e-05	8.382982e-06	5.733802e-06	6.039823e-06	7.180799e-08
367.0	0.0003675968	0.0001735214	3.392147e-05	9.251921e-06	7.195736e-06	8.693298e-06	1.137108e-07
368.0	0.0003232323	0.000158	3.371799e-05	1.03072e-05	9.127985e-06	1.270252e-05	1.844205e-07
369.0	0.0002876699	0.000145496	3.384777e-05	1.159088e-05	1.170716e-05	1.883159e-05	3.05816e-07
370.0	0.0002588675	0.0001353587	3.427474e-05	1.313914e-05	1.515502e-05	2.820016e-05	5.133938e-07
371.0	0.0002354032	0.0001271597	3.500066e-05	1.501426e-05	1.980377e-05	4.247879e-05	8.578492e-07
372.0	0.0002162068	0.0001205737	3.603638e-05	1.729593e-05	2.611997e-05	6.384695e-05	1.380336e-06
373.0	0.000200412	0.0001153136	3.73833e-05	2.007327e-05	3.472679e-05	9.440484e-05	2.039817e-06
374.0	0.0001873739	0.0001111703	3.905612e-05	2.34626e-05	4.647278e-05	0.0001347532	2.669426e-06
375.0	0.0001765975	0.0001079847	4.10789e-05	2.761238e-05	6.246654e-05	0.000181895	3.10714e-06
376.0	0.0001677087	0.0001056378	4.348248e-05	3.270617e-05	8.404504e-05	0.0002288526	3.351714e-06
377.0	0.000160504	0.0001040968	4.632961e-05	3.898406e-05	0.0001125727	0.0002681268	3.508053e-06
378.0	0.0001548155	0.0001033418	4.969713e-05	4.67469e-05	0.0001490106	0.000296912	3.6786e-06
379.0	0.0001504859	0.000103345	5.366075e-05	5.634074e-05	0.0001931312	0.0003175195	3.927422e-06
380.0	0.0001473846	0.0001040863	5.83026e-05	6.814736e-05	0.0002426734	0.000334215	4.295382e-06
381.0	0.0001454379	0.0001055828	6.37381e-05	8.260428e-05	0.0002935104	0.0003512519	4.825193e-06
382.0	0.0001445711	0.0001078417	7.007893e-05	0.000100097	0.0003406832	0.0003716879	5.566794e-06
383.0	0.0001446911	0.000110847	7.74169e-05	0.0001208272	0.0003803326	0.0003976511	6.587328e-06
384.0	0.0001457971	0.0001146501	8.588789e-05	0.0001447959	0.0004115552	0.0004312406	7.992161e-06
385.0	0.0001478752	0.0001192877	9.560554e-05	0.0001715729	0.0004358423	0.0004746555	9.940201e-06
386.0	0.0001509233	0.0001247987	0.0001066578	0.0002002244	0.0004560471	0.0005308207	1.268346e-05
387.0	0.0001548984	0.0001311808	0.0001190543	0.0002293296	0.0004750422	0.0006033966	1.661372e-05
388.0	0.000159737	0.0001383994	0.0001327008	0.0002572177	0.0004952798	0.0006975862	2.236061e-05
389.0	0.0001653946	0.0001464295	0.0001474579	0.0002826546	0.0005191398	0.0008216153	3.096415e-05
390.0	0.000171802	0.000155204	0.0001630483	0.0003048156	0.0005482606	0.0009871553	4.393699e-05
391.0	0.0001788618	0.0001646073	0.000179053	0.0003234784	0.0005841551	0.001211996	6.277372e-05
392.0	0.0001864121	0.0001744503	0.0001949537	0.0003390439	0.0006285081	0.001524301	8.606212e-05
393.0	0.0001942838	0.0001845183	0.000210217	0.0003523149	0.0006833605	0.001968711	0.0001034089
394.0	0.0002023277	0.0001946086	0.0002244263	0.0003644374	0.0007517894	0.002617344	0.0001004661
395.0	0.0002102954	0.0002044194	0.0002371818	0.0003762894	0.0008370825	0.003572267	8.086556e-05
396.0	0.0002179302	0.0002136506	0.0002482576	0.0003887054	0.0009439146	0.004943743	5.953685e-05
397.0	0.0002250376	0.0002220882	0.0002577005	0.0004025959	0.001079361	0.006706119	4.325223e-05
398.0	0.0002314332	0.0002295557	0.0002656821	0.0004186549	0.001253028	0.008327208	3.205888e-05
399.0	0.0002369965	0.0002359749	0.0002725409	0.0004376551	0.001479263	0.008753345	2.449007e-05
400.0	0.0002416345	0.0002413165	0.0002786301	0.000460282	0.001779029	0.007684185	1.929328e-05
401.0	0.0002453549	0.0002456696	0.0002843711	0.0004873537	0.002184101	0.006031742	1.563858e-05
402.0	0.0002482573	0.000249224	0.0002902293	0.0005199049	0.002743396	0.004573411	1.300785e-05
403.0	0.0002505153	0.0002522291	0.0002966268	0.0005591571	0.003533959	0.003497472	1.106876e-05
404.0	0.0002523325	0.0002549525	0.0003039569	0.0006066501	0.004674896	0.002743622	9.611294e-06
405.0	0.0002538995	0.0002576319	0.0003125393	0.0006641984	0.006336074	0.002217535	8.499114e-06
406.0	0.0002554248	0.0002605073	0.0003226925	0.0007342516	0.008715289	0.00184478	7.638766e-06
407.0	0.0002571698	0.0002638692	0.0003348326	0.0008202921	0.011857	0.001575784	6.967703e-06
408.0	0.0002592802	0.0002678738	0.0003492141	0.000926341	0.015127	0.001378432	6.441539e-06
409.0	0.0002619413	0.0002727242	0.0003662267	0.001058301	0.01692	0.001231467	6.028234e-06
410.0	0.0002654225	0.0002787218	0.00038649	0.001225022	0.016082	0.001120975	5.705599e-06
411.0	0.0002698462	0.0002860093	0.0004104492	0.001437602	0.013507	0.001037715	5.456919e-06
412.0	0.000275364	0.0002947747	0.0004387289	0.001712194	0.010733	0.0009752565	5.269928e-06
413.0	0.0002821204	0.0003052142	0.0004721023	0.002072258	0.008474427	0.0009290519	5.135471e-06
414.0	0.0002903162	0.0003175987	0.0005116162	0.002552827	0.00680362	0.0008959021	5.047004e-06
415.0	0.0003001961	0.0003322654	0.0005586234	0.00320641	0.005599531	0.0008735052	4.999765e-06
416.0	0.0003118656	0.0003494143	0.0006144832	0.004108683	0.004731446	0.0008600869	4.989755e-06
417.0	0.0003255363	0.0003693863	0.000681115	0.005372521	0.004098767	0.000854397	5.01478e-06
418.0	0.0003414597	0.0003925871	0.0007609365	0.007154556	0.003632005	0.0008554788	5.073506e-06
419.0	0.0003599548	0.0004195492	0.0008572817	0.009646305	0.003283757	0.0008626761	5.16596e-06
420.0	0.0003813607	0.0004508645	0.0009743642	0.012967	0.003022597	0.0008754828	5.292751e-06
421.0	0.0004059463	0.0004870784	0.001117233	0.016857	0.002826848	0.000893328	5.453989e-06
422.0	0.0004342409	0.000529119	0.00129336	0.020284	0.002681445	0.0009159793	5.652212e-06
423.0	0.0004668389	0.0005780754	0.001512722	0.021718	0.002575814	0.0009432248	5.89049e-06
424.0	0.000504248	0.0006350096	0.001787927	0.020599	0.002502189	0.0009746627	6.171014e-06
425.0	0.0005472895	0.0007015175	0.002137353	0.017927	0.002455066	0.001010139	6.498432e-06
426.0	0.0005969542	0.0007795879	0.002586788	0.014973	0.002430253	0.001049476	6.878257e-06
427.0	0.0006542351	0.0008713994	0.003170959	0.012402	0.002424534	0.001092328	7.315597e-06
428.0	0.0007205316	0.0009799624	0.003940071	0.010365	0.002435588	0.001138511	7.818012e-06
429.0	0.000797751	0.001109399	0.004966975	0.008803978	0.00246184	0.001188005	8.396125e-06
430.0	0.0008879064	0.001264461	0.006348913	0.007618645	0.002501658	0.001240448	9.059099e-06
431.0	0.0009935729	0.00145139	0.00821267	0.006715176	0.002553572	0.001295482	9.817895e-06
432.0	0.001118365	0.001678983	0.010706	0.006020284	0.002616562	0.001352983	1.068818e-05
433.0	0.001266594	0.001958391	0.013922	0.005482093	0.002689433	0.001412632	1.168522e-05
434.0	0.001443701	0.002304347	0.017733	0.005062769	0.002770812	0.001474044	1.28253e-05
435.0	0.001656923	0.002737115	0.021538	0.00473485	0.00285942	0.001536965	1.412765e-05
436.0	0.001915888	0.003284496	0.024211	0.004478691	0.002953941	0.001601222	1.561304e-05
437.0	0.002233673	0.003985231	0.024757	0.004280089	0.00305314	0.001666814	1.730441e-05
438.0	0.002627155	0.004891063	0.023198	0.004128462	0.00315522	0.001733528	1.921743e-05
439.0	0.003119311	0.006072064	0.020461	0.004015859	0.00325842	0.001801302	2.136291e-05
440.0	0.003741906	0.007620227	0.017503	0.003936803	0.003361413	0.001870446	2.374507e-05
441.0	0.004538353	0.009645041	0.014842	0.00388679	0.003462694	0.001941202	2.634908e-05
442.0	0.005567784	0.012249	0.012642	0.003862563	0.003561021	0.002013967	2.913499e-05
443.0	0.006906573	0.015447	0.010889	0.003861723	0.003655288	0.00208912	3.202245e-05
444.0	0.00865063	0.019032	0.009511535	0.003882269	0.003744873	0.002167169	3.489633e-05
445.0	0.010906	0.022407	0.008432733	0.003923287	0.003830205	0.002249083	3.761137e-05
446.0	0.013741	0.024651	0.007587463	0.00398357	0.00391152	0.002335388	3.998769e-05
447.0	0.017093	0.025058	0.006924151	0.004062107	0.003989588	0.002426601	4.185055e-05
448.0	0.020622	0.023707	0.00640522	0.004158861	0.004066548	0.00252368	4.307286e-05
449.0	0.023613	0.021315	0.006000862	0.004272841	0.004143883	0.00262686	4.358612e-05
450.0	0.025222	0.018647	0.00568943	0.00440336	0.004223721	0.002736392	4.340819e-05
451.0	0.025042	0.016173	0.005455631	0.004550075	0.004308901	0.002852455	4.263648e-05
452.0	0.0234	0.014074	0.005287262	0.004712209	0.004401991	0.002974694	4.140947e-05
453.0	0.021019	0.01237	0.00517604	0.004889573	0.004506299	0.003102758	3.988438e-05
454.0	0.018527	0.011017	0.005115415	0.005080899	0.00462432	0.003235266	3.820755e-05
455.0	0.016272	0.009955979	0.005100715	0.0052852	0.004758881	0.003370596	3.649992e-05
456.0	0.014376	0.009131482	0.005129015	0.005501781	0.004913078	0.003506755	3.485391e-05
457.0	0.012839	0.008495621	0.005198057	0.005730131	0.005089939	0.003641545	3.332565e-05
458.0	0.011618	0.008011611	0.00530635	0.005969502	0.005292212	0.003772278	3.194885e-05
459.0	0.010666	0.007655171	0.005454813	0.006221009	0.005524385	0.003897397	3.075396e-05
460.0	0.009925528	0.007399662	0.005639339	0.006480405	0.005785023	0.004011738	2.972663e-05
461.0	0.009362375	0.007233113	0.005862363	0.006750548	0.006079322	0.004115105	2.88793e-05
462.0	0.008940725	0.007141225	0.006122696	0.007030482	0.006408216	0.004204925	2.819438e-05
463.0	0.008636728	0.00711547	0.006420208	0.007320605	0.006773391	0.004280296	2.766467e-05
464.0	0.00843066	0.007147999	0.006752726	0.007619698	0.007173689	0.004340086	2.727671e-05
465.0	0.008306396	0.007232535	0.00711857	0.007927528	0.007608343	0.004384217	2.701534e-05
466.0	0.008252624	0.007364907	0.007515877	0.008244392	0.008075913	0.004413506	2.686953e-05
467.0	0.008257841	0.007539146	0.007939133	0.008567436	0.008569869	0.004427638	2.68198e-05
468.0	0.008314032	0.007751339	0.0083837	0.008895532	0.009084407	0.004427739	2.68533e-05
469.0	0.008413675	0.007996979	0.008843067	0.009226337	0.009610734	0.00441457	2.695475e-05
470.0	0.008547884	0.008269344	0.009307355	0.00955458	0.010135	0.004387874	2.710279e-05
471.0	0.008711362	0.008564243	0.00976863	0.009877917	0.010647	0.004349026	2.728606e-05
472.0	0.008897369	0.008875411	0.010216	0.010192	0.01113	0.004298643	2.7489e-05
473.0	0.009092622	0.009189651	0.010633	0.010483	0.01156	0.004233724	2.76748e-05
474.0	0.009300401	0.00950954	0.011018	0.010759	0.011934	0.004159362	2.785754e-05
475.0	0.009516345	0.009829807	0.011364	0.011017	0.012243	0.004077146	2.803105e-05
476.0	0.009719394	0.010128	0.011644	0.011234	0.012455	0.003981006	2.813836e-05
477.0	0.009918367	0.010411	0.011869	0.011424	0.012579	0.00387803	2.821087e-05
478.0	0.010108	0.010672	0.012032	0.011587	0.012612	0.00376896	2.824092e-05
479.0	0.010287	0.01091	0.012134	0.011723	0.012557	0.003655985	2.823029e-05
480.0	0.010456	0.011122	0.01218	0.011839	0.012421	0.00354141	2.818358e-05
481.0	0.010619	0.011311	0.012179	0.011946	0.012217	0.00342918	2.811967e-05
482.0	0.010777	0.011479	0.012139	0.012049	0.011957	0.003321098	2.804337e-05
483.0	0.010938	0.011632	0.012076	0.012164	0.01166	0.003221089	2.797912e-05
484.0	0.011108	0.011778	0.012007	0.012306	0.011343	0.003132122	2.794613e-05
485.0	0.011292	0.011922	0.011943	0.012482	0.011018	0.003055983	2.795553e-05
486.0	0.011501	0.012077	0.011907	0.012714	0.010706	0.002996751	2.803939e-05
487.0	0.011742	0.012251	0.01191	0.013011	0.01042	0.002955688	2.82072e-05
488.0	0.012018	0.012447	0.011963	0.01338	0.010165	0.002933439	2.846255e-05
489.0	0.012368	0.012713	0.012114	0.013873	0.009979452	0.002940368	2.889868e-05
490.0	0.012756	0.013009	0.012328	0.014444	0.00983141	0.002965743	2.941105e-05
491.0	0.013224	0.013382	0.012653	0.015144	0.009756181	0.003020109	3.009152e-05
492.0	0.013784	0.013847	0.013106	0.015987	0.009758731	0.003105454	3.095039e-05
493.0	0.014443	0.014414	0.013698	0.016978	0.009840673	0.003222959	3.198559e-05
494.0	0.015222	0.015103	0.014452	0.018136	0.010012	0.003376512	3.321569e-05
495.0	0.016137	0.015935	0.015391	0.019473	0.010278	0.003569534	3.465218e-05
496.0	0.017213	0.016934	0.016545	0.021008	0.01065	0.003806766	3.631431e-05
497.0	0.018472	0.018124	0.017942	0.022754	0.011134	0.004092181	3.820913e-05
498.0	0.019941	0.019533	0.019618	0.024729	0.011742	0.004431369	4.035599e-05
499.0	0.021651	0.021194	0.021615	0.026954	0.012486	0.004830002	4.277164e-05
500.0	0.023632	0.023138	0.023972	0.029439	0.013376	0.005292742	4.546158e-05
501.0	0.025925	0.025405	0.026743	0.032211	0.014428	0.005826758	4.845437e-05
502.0	0.028556	0.028026	0.029968	0.035282	0.015651	0.006435905	5.175292e-05
503.0	0.031563	0.031037	0.0337	0.038666	0.017059	0.007125182	5.537195e-05
504.0	0.034984	0.03448	0.037996	0.042386	0.018665	0.007900551	5.933869e-05
505.0	0.038832	0.03837	0.042888	0.046432	0.020469	0.008761836	6.363776e-05
506.0	0.043129	0.042733	0.048427	0.050808	0.022479	0.009712647	6.829251e-05
507.0	0.047882	0.047581	0.054653	0.055499	0.024694	0.010754	7.33148e-05
508.0	0.053064	0.052896	0.06158	0.060452	0.0271	0.011883	7.868898e-05
509.0	0.058656	0.058671	0.069244	0.065622	0.029689	0.0131	8.443825e-05
510.0	0.064599	0.064869	0.077658	0.070908	0.03244	0.014401	9.053618e-05
511.0	0.070837	0.071456	0.086827	0.076207	0.035335	0.015781	9.69924e-05
512.0	0.077298	0.078391	0.096766	0.081391	0.038357	0.017239	0.0001038103
513.0	0.083915	0.085638	0.107453	0.086316	0.041487	0.018767	0.0001109665
514.0	0.090637	0.093182	0.118869	0.090858	0.044722	0.020359	0.0001184719
515.0	0.097433	0.101026	0.130964	0.09491	0.048063	0.022009	0.0001263309
516.0	0.104298	0.10919	0.143636	0.098393	0.051521	0.023703	0.0001345238
517.0	0.111266	0.117734	0.156745	0.101287	0.055121	0.025431	0.0001430699
518.0	0.118392	0.126726	0.170066	0.103609	0.058894	0.027174	0.0001519696
519.0	0.125754	0.136246	0.183295	0.105428	0.062878	0.028913	0.0001612496
520.0	0.133449	0.146384	0.196057	0.106834	0.067113	0.030623	0.0001709166
521.0	0.141591	0.15724	0.207931	0.10793	0.071644	0.032274	0.000180957
522.0	0.150298	0.168897	0.218481	0.108838	0.076515	0.033839	0.0001913971
523.0	0.159678	0.181404	0.227293	0.109668	0.081756	0.035286	0.0002022153
524.0	0.169834	0.194777	0.234079	0.110527	0.087393	0.036594	0.0002134437
525.0	0.180852	0.208979	0.238667	0.111502	0.093432	0.037737	0.0002250461
526.0	0.192795	0.223899	0.241045	0.112668	0.099861	0.038699	0.000236972
527.0	0.205697	0.239355	0.241375	0.114092	0.106641	0.039475	0.0002492227
528.0	0.219527	0.255043	0.239906	0.115819	0.113691	0.040058	0.0002616632
529.0	0.234195	0.270569	0.237007	0.117897	0.120896	0.040464	0.0002742807
530.0	0.249572	0.285491	0.233042	0.120362	0.128118	0.040706	0.0002870032
531.0	0.265419	0.299278	0.228344	0.123241	0.135159	0.040793	0.0002996199
