wavelength	0.0	15.0	30.0	45.0	60.0	75.0	89.0
300.0	0.100458	0.110915	0.122235	0.086908	0.040601	0.033032	0.001210244
301.0	0.111401	0.12126	0.126758	0.084738	0.039147	0.037271	0.001619053
302.0	0.122768	0.131564	0.130141	0.081926	0.038223	0.042875	0.002203083
303.0	0.134312	0.141506	0.132386	0.078402	0.037912	0.049972	0.002944303
304.0	0.145858	0.150825	0.13369	0.074272	0.038313	0.058332	0.003600042
305.0	0.157117	0.159172	0.134207	0.069732	0.039511	0.066767	0.003692591
306.0	0.167713	0.166229	0.134049	0.065072	0.041611	0.07269	0.00311603
307.0	0.17697	0.171578	0.133062	0.060544	0.044709	0.072938	0.002327868
308.0	0.184551	0.175258	0.131157	0.056449	0.048952	0.066518	0.001674868
309.0	0.190812	0.177914	0.128521	0.053111	0.054546	0.055909	0.001215376
310.0	0.196228	0.180256	0.125289	0.050741	0.061556	0.044687	0.0009051793
311.0	0.201332	0.182966	0.121509	0.049465	0.069649	0.035019	0.000695032
312.0	0.203776	0.183902	0.115303	0.048733	0.076968	0.027341	0.0005520322
313.0	0.203474	0.182402	0.106796	0.048465	0.081249	0.021496	0.0004532187
314.0	0.202874	0.180155	0.097905	0.049054	0.080444	0.017097	0.0003802722
315.0	0.203007	0.177545	0.089478	0.050586	0.073671	0.013743	0.0003231069
316.0	0.201593	0.172066	0.081435	0.052941	0.063018	0.01125	0.0002823412
317.0	0.1975	0.16319	0.074273	0.056268	0.051441	0.009410185	0.0002548493
318.0	0.191073	0.151884	0.068105	0.060236	0.040485	0.007898582	0.0002306776
319.0	0.182345	0.139012	0.062903	0.064244	0.031105	0.006545027	0.0002040781
320.0	0.170428	0.125491	0.059104	0.068871	0.024064	0.005508179	0.0001845718
321.0	0.155989	0.112447	0.056711	0.074033	0.018918	0.00476304	0.0001739629
322.0	0.140959	0.100801	0.055463	0.078077	0.015006	0.004138225	0.0001650456
323.0	0.126747	0.091024	0.055317	0.079402	0.011975	0.003554156	0.0001538508
324.0	0.113928	0.083228	0.056474	0.077857	0.009683885	0.003096119	0.000146437
325.0	0.102875	0.077256	0.058916	0.072968	0.007947858	0.00277377	0.0001450249
326.0	0.093744	0.072909	0.062634	0.065075	0.006594373	0.002525178	0.0001466543
327.0	0.086564	0.070112	0.067804	0.05579	0.005518427	0.002317457	0.0001493796
328.0	0.081241	0.068792	0.074602	0.046449	0.004665067	0.002156906	0.0001541768
329.0	0.077575	0.068841	0.083125	0.037829	0.003992	0.002048467	0.0001622743
330.0	0.075359	0.070149	0.093268	0.030227	0.003463057	0.0019932	0.0001748073
331.0	0.074413	0.072615	0.104548	0.023741	0.003047702	0.001990013	0.0001928725
332.0	0.074707	0.076268	0.115941	0.018433	0.002720844	0.002032645	0.0002167257
333.0	0.076156	0.081035	0.124625	0.014193	0.002454019	0.002096356	0.0002440685
334.0	0.078633	0.086926	0.12684	0.010925	0.002233294	0.00217548	0.0002741513
335.0	0.082326	0.094313	0.12013	0.00847958	0.002054441	0.002277871	0.0003072832
336.0	0.087457	0.103509	0.104958	0.006658745	0.001912223	0.002411361	0.0003440466
337.0	0.094102	0.114494	0.084762	0.005290053	0.001799421	0.002577489	0.0003846365
338.0	0.102452	0.127026	0.064438	0.004254431	0.001711414	0.002781228	0.0004296635
339.0	0.112697	0.140073	0.047185	0.00346482	0.001644717	0.003029164	0.0004801142
340.0	0.124909	0.15107	0.033927	0.002857158	0.001596659	0.003330239	0.0005374893
341.0	0.138672	0.155387	0.024281	0.002385444	0.001565347	0.003695926	0.0006038878
342.0	0.152457	0.147941	0.017448	0.002016503	0.0015496	0.004141069	0.0006819773
343.0	0.162643	0.127661	0.012657	0.001725981	0.001548845	0.004685491	0.000775156
344.0	0.163322	0.100057	0.009295419	0.001495691	0.00156295	0.005355332	0.0008877872
345.0	0.149456	0.07297	0.006921152	0.001312032	0.001592238	0.00618544	0.001025427
346.0	0.122694	0.051065	0.005228221	0.001164778	0.001637235	0.007220798	0.001194611
347.0	0.091626	0.035165	0.00400775	0.001046197	0.001699025	0.008523093	0.001403264
348.0	0.064324	0.024212	0.003117138	0.0009503905	0.001779191	0.010176	0.001660422
349.0	0.043866	0.01682	0.002459663	0.0008729505	0.001879947	0.012297	0.001975043
350.0	0.029729	0.011844	0.001968631	0.0008105015	0.002004186	0.015043	0.00235418
351.0	0.020279	0.008469473	0.001597526	0.0007604543	0.002155745	0.01864	0.00280039
352.0	0.014014	0.00615506	0.001313934	0.0007208315	0.002339508	0.023399	0.003306618
353.0	0.009839159	0.004546312	0.001094913	0.0006901272	0.002561733	0.029758	0.003852341
354.0	0.007027794	0.003413082	0.000924211	0.0006672223	0.002830088	0.038306	0.004403029
355.0	0.005106943	0.002603046	0.0007898588	0.0006512322	0.0031546	0.049832	0.00491801
356.0	0.003773021	0.002015217	0.0006830784	0.0006415332	0.003548677	0.065338	0.005361833
357.0	0.002833564	0.001583374	0.0005976784	0.0006377558	0.004028642	0.085842	0.005713964
358.0	0.002162505	0.001262276	0.0005290254	0.0006397576	0.00461607	0.112025	0.005977049
359.0	0.00167595	0.001020404	0.0004734816	0.0006474119	0.005338418	0.143455	0.006171367
360.0	0.001318775	0.0008363635	0.0004284979	0.0006609649	0.00623256	0.177729	0.006327282
361.0	0.001053558	0.0006950731	0.0003921706	0.000680931	0.007347917	0.210391	0.006476063
362.0	0.0008537315	0.0005852079	0.0003627233	0.0007075141	0.008747259	0.236526	0.00664285
363.0	0.0007015996	0.0004990993	0.0003390292	0.0007414572	0.010515	0.253409	0.006848932
364.0	0.0005847339	0.0004311911	0.0003202451	0.0007837409	0.012762	0.261671	0.007109497
365.0	0.0004940907	0.0003772793	0.0003056757	0.0008355683	0.015635	0.264199	0.007435786
366.0	0.0004233609	0.0003343904	0.0002948899	0.0008985819	0.019324	0.264233	0.007833066
367.0	0.0003675968	0.0003000368	0.0002873978	0.0009745228	0.024075	0.264328	0.008306139
368.0	0.0003232323	0.0002723822	0.0002828461	0.001065568	0.030194	0.266168	0.00885815
369.0	0.0002876699	0.0002500663	0.0002810127	0.001174535	0.038053	0.270739	0.009486366
370.0	0.0002588675	0.0002319406	0.0002815793	0.001304054	0.048032	0.278539	0.010176
371.0	0.0002354032	0.0002172353	0.0002844783	0.001458254	0.060509	0.289859	0.010907
372.0	0.0002162068	0.000205364	0.000289711	0.001642305	0.075731	0.304776	0.011649
373.0	0.000200412	0.0001958191	0.0002972312	0.001861886	0.093609	0.323072	0.012356
374.0	0.0001873739	0.0001882271	0.0003070836	0.002124202	0.1136	0.344156	0.012976
375.0	0.0001765975	0.0001823023	0.000319375	0.002438158	0.134654	0.366868	0.013455
376.0	0.0001677087	0.0001778306	0.0003342546	0.002814242	0.155386	0.389312	0.013751
377.0	0.000160504	0.0001747376	0.0003520563	0.003265135	0.174451	0.408768	0.01383
378.0	0.0001548155	0.0001729726	0.000373193	0.003805984	0.191112	0.42222	0.013693
379.0	0.0001504859	0.0001724762	0.0003980598	0.004452985	0.205356	0.427071	0.013361
380.0	0.0001473846	0.0001732019	0.0004270722	0.005222396	0.217741	0.421997	0.012873
381.0	0.0001454379	0.0001751632	0.0004608289	0.006131903	0.229208	0.407561	0.012273
382.0	0.0001445711	0.0001783595	0.000499887	0.007195225	0.240646	0.385855	0.011601
383.0	0.0001446911	0.0001827557	0.0005446818	0.008417609	0.252705	0.359694	0.010889
384.0	0.0001457971	0.0001884203	0.0005958671	0.009796673	0.265771	0.331861	0.010162
385.0	0.0001478752	0.0001953993	0.0006539661	0.011316	0.279798	0.304462	0.009436256
386.0	0.0001509233	0.0002037425	0.000719366	0.012945	0.294224	0.278813	0.008720147
387.0	0.0001548984	0.0002134382	0.0007920888	0.014641	0.307876	0.255556	0.008020062
388.0	0.000159737	0.0002244265	0.0008716812	0.016355	0.318985	0.234853	0.007339657
389.0	0.0001653946	0.0002366664	0.0009575994	0.018058	0.325516	0.216592	0.00668264
390.0	0.000171802	0.0002500538	0.00104865	0.019727	0.325487	0.200495	0.006052427
391.0	0.0001788618	0.0002644125	0.001142963	0.021354	0.31774	0.186234	0.005452792
392.0	0.0001864121	0.0002794644	0.001238289	0.022961	0.302486	0.173469	0.004887061
393.0	0.0001942838	0.0002948955	0.001332212	0.024583	0.281243	0.161891	0.004358502
394.0	0.0002023277	0.0003104113	0.001422708	0.026283	0.256336	0.151257	0.003870182
395.0	0.0002102954	0.0003255694	0.001507623	0.028121	0.230123	0.141356	0.003423952
396.0	0.0002179302	0.0003399267	0.001585434	0.030168	0.204505	0.132034	0.003020593
397.0	0.0002250376	0.0003531613	0.001655817	0.032513	0.180726	0.1232	0.002659922
398.0	0.0002314332	0.0003649983	0.001719071	0.03525	0.15939	0.114787	0.002340203
399.0	0.0002369965	0.0003753008	0.001776477	0.038494	0.14069	0.106787	0.002059394
400.0	0.0002416345	0.0003840027	0.001829634	0.042364	0.124538	0.099186	0.001814433
401.0	0.0002453549	0.0003912139	0.001880803	0.046994	0.110723	0.091999	0.001602012
402.0	0.0002482573	0.0003971996	0.00193283	0.052536	0.099007	0.085271	0.001419135
403.0	0.0002505153	0.0004023181	0.001988491	0.0591	0.089093	0.078999	0.001262119
404.0	0.0002523325	0.000406965	0.002050662	0.06671	0.08072	0.073184	0.001127705
405.0	0.0002538995	0.0004115027	0.00212203	0.075171	0.073663	0.067826	0.001012994
406.0	0.0002554248	0.0004163028	0.002205456	0.083953	0.067711	0.062904	0.0009151105
407.0	0.0002571698	0.0004218234	0.002304682	0.092071	0.062703	0.058411	0.0008317732
408.0	0.0002592802	0.0004283248	0.002422669	0.098066	0.058488	0.05432	0.0007608351
409.0	0.0002619413	0.0004361416	0.002563583	0.100522	0.054941	0.050605	0.0007004185
410.0	0.0002654225	0.0004457689	0.00273369	0.098726	0.051964	0.047248	0.0006490436
411.0	0.0002698462	0.000457452	0.002938436	0.093055	0.049466	0.04422	0.0006053548
412.0	0.000275364	0.0004715135	0.00318533	0.084828	0.047371	0.041497	0.0005682386
413.0	0.0002821204	0.0004883014	0.003484174	0.075584	0.045613	0.039056	0.000536744
414.0	0.0002903162	0.000508277	0.003848021	0.066516	0.044137	0.036874	0.0005100696
415.0	0.0003001961	0.0005320173	0.004294344	0.05831	0.042898	0.034933	0.0004875651
416.0	0.0003118656	0.0005598981	0.004843393	0.051232	0.041848	0.033209	0.0004686337
417.0	0.0003255363	0.0005925202	0.005523246	0.045296	0.040946	0.031684	0.0004528033
418.0	0.0003414597	0.0006306004	0.006370759	0.040393	0.040158	0.030338	0.0004396507
419.0	0.0003599548	0.0006750868	0.00743775	0.036369	0.039454	0.029153	0.0004288316
420.0	0.0003813607	0.0007270499	0.008792411	0.03308	0.038808	0.028116	0.0004200597
421.0	0.0004059463	0.0007875223	0.010521	0.030392	0.038193	0.027207	0.0004130208
422.0	0.0004342409	0.0008581901	0.012741	0.028197	0.037594	0.026417	0.0004075149
423.0	0.0004668389	0.0009410645	0.015602	0.026404	0.036997	0.025731	0.0004033462
424.0	0.000504248	0.001038195	0.01926	0.024941	0.036389	0.025139	0.0004002954
425.0	0.0005472895	0.001152603	0.023858	0.02375	0.035764	0.02463	0.0003982122
426.0	0.0005969542	0.001288095	0.029411	0.022783	0.035116	0.024194	0.0003969132
427.0	0.0006542351	0.00144899	0.035611	0.022004	0.034445	0.023821	0.0003962554
428.0	0.0007205316	0.001641237	0.041631	0.021381	0.033754	0.023505	0.0003961168
429.0	0.000797751	0.001873006	0.046162	0.020892	0.033046	0.023239	0.0003963614
430.0	0.0008879064	0.002154012	0.04796	0.020516	0.032328	0.023017	0.0003968654
431.0	0.0009935729	0.002497146	0.046698	0.020236	0.031604	0.022831	0.0003975028
432.0	0.001118365	0.00292061	0.043138	0.020037	0.030879	0.022678	0.0003981749
433.0	0.001266594	0.003447859	0.038489	0.019906	0.030161	0.022551	0.000398784
434.0	0.001443701	0.004110136	0.033732	0.019831	0.029455	0.022446	0.0003992195
435.0	0.001656923	0.004950381	0.0294	0.019801	0.028766	0.022357	0.0003994115
436.0	0.001915888	0.006026794	0.025686	0.019807	0.028099	0.022282	0.0003992991
437.0	0.002233673	0.007417959	0.022596	0.01984	0.027462	0.022218	0.0003988537
438.0	0.002627155	0.00922199	0.020062	0.01989	0.026857	0.022161	0.0003980204
439.0	0.003119311	0.011554	0.017995	0.019949	0.026289	0.022106	0.0003967676
440.0	0.003741906	0.014519	0.016311	0.02001	0.025763	0.022055	0.0003951485
441.0	0.004538353	0.018145	0.014937	0.020066	0.025284	0.022005	0.0003931612
442.0	0.005567784	0.022236	0.013815	0.020111	0.024855	0.021953	0.0003908364
443.0	0.006906573	0.026196	0.012901	0.020138	0.024478	0.021899	0.0003882347
444.0	0.00865063	0.029068	0.012157	0.020144	0.024156	0.021842	0.0003853983
445.0	0.010906	0.029996	0.011557	0.020128	0.023894	0.021782	0.0003824396
446.0	0.013741	0.028854	0.011079	0.02009	0.023694	0.021721	0.0003794298
447.0	0.017093	0.026299	0.010705	0.020028	0.023555	0.021656	0.0003764347
448.0	0.020622	0.023208	0.010425	0.019949	0.023484	0.021594	0.0003735961
449.0	0.023613	0.020202	0.010227	0.019856	0.023479	0.021534	0.0003709735
450.0	0.025222	0.017572	0.010104	0.019755	0.02354	0.021478	0.0003686509
451.0	0.025042	0.015395	0.01005	0.019655	0.023672	0.021432	0.0003667439
452.0	0.0234	0.01364	0.010062	0.019562	0.023872	0.021397	0.0003653108
453.0	0.021019	0.012244	0.010135	0.019486	0.024142	0.021377	0.0003644455
454.0	0.018527	0.011145	0.010268	0.019434	0.02448	0.021378	0.0003642047
455.0	0.016272	0.010285	0.010458	0.019414	0.024885	0.021401	0.0003646478
456.0	0.014376	0.009620033	0.010704	0.019435	0.025355	0.021452	0.0003658454
457.0	0.012839	0.009112892	0.011005	0.019502	0.025887	0.021534	0.0003678289
458.0	0.011618	0.008735978	0.011359	0.019621	0.026477	0.021649	0.0003706168
459.0	0.010666	0.008472262	0.011767	0.019804	0.02713	0.021807	0.0003743571
460.0	0.009925528	0.008299941	0.012221	0.020041	0.027821	0.021995	0.00037881
461.0	0.009362375	0.008211503	0.012721	0.020347	0.028558	0.022226	0.0003841802
462.0	0.008940725	0.008195543	0.013264	0.020718	0.029326	0.022494	0.00039034
463.0	0.008636728	0.008245725	0.013844	0.021157	0.03012	0.0228	0.0003972865
464.0	0.00843066	0.008355478	0.014453	0.02166	0.030923	0.023139	0.0004049105
465.0	0.008306396	0.008519582	0.015084	0.022225	0.031723	0.023506	0.0004131098
466.0	0.008252624	0.008734589	0.015729	0.022849	0.032509	0.023897	0.000421814
467.0	0.008257841	0.008994328	0.016375	0.02352	0.033259	0.024299	0.0004307832
468.0	0.008314032	0.00929474	0.017013	0.024232	0.033958	0.024705	0.000439877
469.0	0.008413675	0.009630683	0.017629	0.024972	0.03459	0.025104	0.0004488934
470.0	0.008547884	0.009994021	0.018208	0.02572	0.035129	0.025477	0.0004575122
471.0	0.008711362	0.010379	0.01874	0.026465	0.035563	0.025817	0.0004655816
472.0	0.008897369	0.010779	0.019212	0.027189	0.035879	0.02611	0.0004728811
473.0	0.009092622	0.011175	0.019599	0.02785	0.036033	0.026322	0.0004788073
474.0	0.009300401	0.011572	0.01991	0.02846	0.036054	0.026472	0.0004836909
475.0	0.009516345	0.011961	0.020144	0.029009	0.035944	0.026559	0.0004875323
476.0	0.009719394	0.012315	0.020263	0.029433	0.035643	0.026532	0.0004894109
477.0	0.009918367	0.012642	0.020294	0.029764	0.035207	0.026429	0.0004900413
478.0	0.010108	0.012933	0.020238	0.029993	0.034641	0.026252	0.0004894374
479.0	0.010287	0.013186	0.020104	0.030125	0.033965	0.02601	0.0004877913
480.0	0.010456	0.013398	0.019903	0.030167	0.033202	0.02572	0.0004853758
481.0	0.010619	0.013575	0.01966	0.030145	0.032395	0.025411	0.00048273
482.0	0.010777	0.013717	0.019388	0.03007	0.031565	0.025095	0.0004801171
483.0	0.010938	0.013834	0.019114	0.029976	0.030756	0.024807	0.0004781494
484.0	0.011108	0.013937	0.018863	0.029887	0.030002	0.02457	0.00047732
485.0	0.011292	0.014031	0.018652	0.029821	0.029325	0.024403	0.0004779857
486.0	0.011501	0.014135	0.018511	0.029819	0.028769	0.024341	0.0004808742
487.0	0.011742	0.014258	0.018458	0.029894	0.028352	0.024397	0.0004863206
488.0	0.012018	0.014408	0.018502	0.030053	0.028082	0.024582	0.0004945892
489.0	0.012368	0.014636	0.018715	0.030399	0.028059	0.024984	0.000507532
490.0	0.012756	0.014902	0.019039	0.030828	0.028184	0.025518	0.0005236289
491.0	0.013224	0.015258	0.019544	0.03144	0.028555	0.026277	0.0005448481
492.0	0.013784	0.015722	0.020252	0.032255	0.02919	0.027282	0.0005718307
493.0	0.014443	0.016303	0.021176	0.033277	0.030098	0.028546	0.0006051199
494.0	0.015222	0.017026	0.022349	0.034538	0.031314	0.030105	0.0006457085
495.0	0.016137	0.017912	0.023802	0.036063	0.032865	0.031993	0.0006946372
496.0	0.017213	0.018989	0.025575	0.037886	0.034792	0.034255	0.0007532656
497.0	0.018472	0.020281	0.027704	0.040034	0.037132	0.036929	0.0008228696
498.0	0.019941	0.021822	0.030239	0.042547	0.039934	0.040068	0.000905193
499.0	0.021651	0.023645	0.033232	0.045465	0.043251	0.04373	0.001002116
500.0	0.023632	0.025783	0.036732	0.048819	0.04713	0.047964	0.001115488
501.0	0.025925	0.028281	0.040807	0.052663	0.051643	0.052845	0.001247924
502.0	0.028556	0.031173	0.045506	0.057024	0.05684	0.058422	0.001401577
503.0	0.031563	0.034497	0.050891	0.061938	0.062783	0.064759	0.001579115
504.0	0.034984	0.038299	0.057031	0.067449	0.069548	0.07193	0.001783729
505.0	0.038832	0.042596	0.06396	0.073548	0.077164	0.079957	0.002017518
506.0	0.043129	0.047416	0.071736	0.080252	0.085693	0.08889	0.002283679
507.0	0.047882	0.052775	0.080402	0.087549	0.095178	0.098755	0.002585069
508.0	0.053064	0.058655	0.089962	0.095372	0.105616	0.109514	0.002923337
509.0	0.058656	0.065053	0.100447	0.103675	0.117042	0.121157	0.003301401
510.0	0.064599	0.071933	0.111839	0.112342	0.129434	0.133593	0.003720487
511.0	0.070837	0.079265	0.124098	0.121268	0.142761	0.146721	0.004182514
512.0	0.077298	0.087014	0.137174	0.13032	0.156997	0.160401	0.004688029
513.0	0.083915	0.095144	0.150939	0.139353	0.172054	0.174444	0.005237486
514.0	0.090637	0.103647	0.165246	0.148252	0.187866	0.18867	0.005831663
515.0	0.097433	0.112527	0.179883	0.156917	0.204336	0.202878	0.00647085
516.0	0.104298	0.121807	0.194555	0.16527	0.221321	0.216852	0.007154439
517.0	0.111266	0.131544	0.208942	0.173295	0.238693	0.230433	0.00788318
518.0	0.118392	0.141805	0.222658	0.181001	0.256273	0.243471	0.008657265
519.0	0.125754	0.152659	0.235308	0.188437	0.273859	0.255868	0.009477133
520.0	0.133449	0.164182	0.24652	0.195677	0.291226	0.267558	0.010343
521.0	0.141591	0.176452	0.255981	0.202812	0.308132	0.278515	0.011254
522.0	0.150298	0.189518	0.263493	0.209955	0.324335	0.288774	0.012213
523.0	0.159678	0.203384	0.26896	0.217204	0.339571	0.298373	0.013216
524.0	0.169834	0.218006	0.272451	0.224671	0.353632	0.307403	0.014266
525.0	0.180852	0.233274	0.274118	0.232443	0.366312	0.315941	0.01536
526.0	0.192795	0.248992	0.274201	0.240596	0.377452	0.324073	0.016495
527.0	0.205697	0.264891	0.27301	0.249204	0.386978	0.331902	0.017669
528.0	0.219527	0.28058	0.270836	0.258298	0.394819	0.339483	0.018874
529.0	0.234195	0.295608	0.268007	0.267907	0.401027	0.346908	0.020107
530.0	0.249572	0.309504	0.264786	0.27805	0.405683	0.354241	0.02136
531.0	0.265419	0.321754	0.261385	0.288706	0.408871	0.361509	0.02262
532.0	0.281414	0.331935	0.258034	0.299854	0.410807	0.368788	0.023887
533.0	0.297158	0.339707	0.254871	0.311437	0.411647	0.376095	0.025147
534.0	0.312179	0.344858	0.251998	0.323374	0.411551	0.383433	0.026386
535.0	0.325998	0.347381	0.249514	0.33559	0.41073	0.390836	0.0276
536.0	0.338098	0.347382	0.247472	0.347949	0.409338	0.398286	0.028773
537.0	0.348044	0.345143	0.245929	0.360311	0.407566	0.405789	0.029902
538.0	0.355523	0.341003	0.244905	0.372545	0.405538	0.41334	0.030979
539.0	0.36032	0.335325	0.244406	0.384467	0.403351	0.4209	0.031988
540.0	0.362436	0.328571	0.244471	0.395909	0.401169	0.428471	0.032934
541.0	0.361999	0.321102	0.245104	0.406706	0.399068	0.436027	0.033811
542.0	0.359233	0.313219	0.246298	0.416676	0.397091	0.443522	0.034606
543.0	0.354524	0.305251	0.248073	0.425663	0.39534	0.450935	0.035328
544.0	0.348258	0.297409	0.250424	0.433517	0.39385	0.458214	0.035971
545.0	0.340818	0.289844	0.253348	0.440125	0.392642	0.465325	0.036536
546.0	0.332603	0.282701	0.256854	0.445404	0.39176	0.472223	0.037025
547.0	0.32395	0.276067	0.260935	0.449293	0.391217	0.47885	0.037439
548.0	0.315157	0.270005	0.26559	0.451785	0.391029	0.485164	0.037781
549.0	0.306454	0.26455	0.270819	0.452908	0.391206	0.491122	0.038055
550.0	0.298018	0.259719	0.276614	0.45271	0.391748	0.496673	0.038263
551.0	0.289998	0.255527	0.282969	0.451288	0.392663	0.50178	0.03841
552.0	0.28249	0.251972	0.289868	0.448751	0.393945	0.5064	0.038501
553.0	0.275558	0.249047	0.297289	0.445227	0.395589	0.510496	0.03854
554.0	0.269243	0.246743	0.305213	0.440856	0.397591	0.514046	0.038532
555.0	0.263565	0.245048	0.313605	0.435776	0.399941	0.517022	0.038481
556.0	0.258529	0.243947	0.322413	0.430121	0.402619	0.519395	0.038387
557.0	0.254147	0.243439	0.331588	0.424048	0.405625	0.521174	0.038262
558.0	0.250415	0.243514	0.341058	0.417694	0.408943	0.522366	0.038111
559.0	0.247308	0.244155	0.350744	0.411146	0.41255	0.522954	0.037932
