Opt. Const. of Biaxial vs. nm
Wavelength (nm)	"n Ordinary"	"k Ordinary"	"n Extra-ordinary"	"k Extra-ordinary"
247.357712	1.669331	0.484047	1.545536	0.290051
248.939362	1.682539	0.473196	1.559280	0.286314
250.521072	1.694398	0.461554	1.572316	0.281522
252.102859	1.704878	0.449245	1.584569	0.275785
253.684723	1.713960	0.436388	1.595979	0.269214
255.266678	1.721626	0.423097	1.606502	0.261921
256.848694	1.727862	0.409481	1.616105	0.254012
258.430786	1.732654	0.395647	1.624766	0.245592
260.012939	1.735984	0.381700	1.632475	0.236760
261.595184	1.737831	0.367750	1.639228	0.227611
263.177490	1.738169	0.353913	1.645028	0.218232
264.759857	1.736969	0.340322	1.649883	0.208706
266.342346	1.734200	0.327128	1.653805	0.199107
267.924866	1.729838	0.314513	1.656803	0.189506
269.507477	1.723876	0.302693	1.658889	0.179963
271.090149	1.716341	0.291920	1.660065	0.170537
272.672882	1.707311	0.282479	1.660321	0.161278
274.255676	1.696935	0.274680	1.659626	0.152239
275.838562	1.685451	0.268834	1.657911	0.143486
277.421509	1.673205	0.265227	1.655053	0.135132
279.004547	1.660643	0.264074	1.650882	0.127403
280.587616	1.648310	0.265484	1.645250	0.120727
282.170776	1.636808	0.269411	1.638196	0.115784
283.753998	1.626749	0.275630	1.630211	0.113404
285.337280	1.618688	0.283718	1.622423	0.114205
286.920654	1.613049	0.293081	1.616434	0.118040
288.504089	1.610063	0.302999	1.613656	0.123629
290.087555	1.609727	0.312700	1.614376	0.128850
291.671112	1.611797	0.321448	1.617270	0.131814
293.254730	1.615816	0.328620	1.619917	0.132102
294.838409	1.621165	0.333774	1.620202	0.131296
296.422180	1.627142	0.336683	1.617774	0.132312
298.005981	1.633030	0.337338	1.614698	0.137794
299.589844	1.638167	0.335935	1.614786	0.148360
301.173767	1.641996	0.332838	1.621760	0.161713
302.757782	1.644104	0.328531	1.637179	0.173327
304.341858	1.644238	0.323568	1.659435	0.178457
305.925964	1.642307	0.318529	1.684449	0.174205
307.510162	1.638375	0.313971	1.707428	0.160448
309.094391	1.632643	0.310394	1.724537	0.139442
310.678680	1.625418	0.308210	1.733808	0.114696
312.263062	1.617088	0.307727	1.735210	0.089771
313.847473	1.608086	0.309130	1.730153	0.067416
315.431946	1.598853	0.312489	1.720755	0.049179
317.016510	1.589812	0.317759	1.709161	0.035456
318.601105	1.581336	0.324797	1.697084	0.025803
320.185730	1.573728	0.333385	1.685619	0.019356
321.770447	1.567205	0.343257	1.675288	0.015176
323.355225	1.561897	0.354123	1.666205	0.012466
324.940063	1.557846	0.365700	1.658253	0.010642
326.524963	1.555017	0.377734	1.651222	0.009330
328.109863	1.553318	0.390018	1.644897	0.008310
329.694885	1.552617	0.402408	1.639091	0.007464
331.279907	1.552766	0.414822	1.633650	0.006729
332.865021	1.553620	0.427241	1.628450	0.006077
334.450165	1.555055	0.439705	1.623379	0.005494
336.035370	1.556987	0.452298	1.618324	0.004979
337.620636	1.559382	0.465135	1.613160	0.004554
339.205933	1.562260	0.478344	1.607728	0.004281
340.791321	1.565703	0.492050	1.601846	0.004311
342.376709	1.569846	0.506355	1.595351	0.004940
343.962189	1.574877	0.521322	1.588201	0.006645
345.547699	1.581015	0.536959	1.580639	0.010043
347.133240	1.588504	0.553210	1.573341	0.015700
348.718872	1.597588	0.569949	1.567410	0.023805
350.304535	1.608490	0.586980	1.564106	0.033856
351.890259	1.621395	0.604040	1.564329	0.044584
353.476013	1.636434	0.620815	1.568126	0.054302
355.061829	1.653666	0.636952	1.574557	0.061562
356.647675	1.673074	0.652082	1.582076	0.065737
358.233582	1.694564	0.665837	1.589195	0.067183
359.819550	1.717962	0.677866	1.595050	0.066918
361.405548	1.743030	0.687859	1.599586	0.066058
362.991577	1.769471	0.695552	1.603351	0.065333
364.577698	1.796942	0.700742	1.607072	0.064877
366.163818	1.825070	0.703293	1.611269	0.064337
367.749969	1.853463	0.703134	1.616056	0.063151
369.336212	1.881727	0.700270	1.621157	0.060832
370.922485	1.909475	0.694770	1.626072	0.057154
372.508789	1.936338	0.686774	1.630265	0.052181
374.095154	1.961981	0.676480	1.633309	0.046213
375.681519	1.986110	0.664144	1.634961	0.039678
377.267975	2.008486	0.650069	1.635170	0.033029
378.854431	2.028930	0.634599	1.634048	0.026669
380.440979	2.047334	0.618102	1.631812	0.020900
382.027527	2.063667	0.600960	1.628733	0.015909
383.614105	2.077978	0.583547	1.625084	0.011777
385.200745	2.090395	0.566218	1.621104	0.008496
386.787445	2.101124	0.549284	1.616981	0.006002
388.374146	2.110433	0.532995	1.612836	0.004208
389.960907	2.118642	0.517525	1.608740	0.003029
391.547699	2.126096	0.502954	1.604721	0.002407
393.134552	2.133146	0.489268	1.600791	0.002326
394.721405	2.140118	0.476357	1.596978	0.002810
396.308289	2.147287	0.464021	1.593350	0.003913
397.895264	2.154853	0.451994	1.590038	0.005684
399.482239	2.162925	0.439964	1.587238	0.008129
401.069244	2.171510	0.427605	1.585189	0.011170
402.656311	2.180518	0.414603	1.584121	0.014609
404.243378	2.189768	0.400690	1.584196	0.018134
405.830505	2.199009	0.385660	1.585447	0.021357
407.417664	2.207941	0.369388	1.587738	0.023880
409.004822	2.216240	0.351838	1.590776	0.025375
410.592041	2.223587	0.333062	1.594155	0.025660
412.179291	2.229684	0.313190	1.597436	0.024725
413.766541	2.234279	0.292425	1.600224	0.022731
415.353912	2.237179	0.271016	1.602236	0.019965
416.941223	2.238253	0.249252	1.603333	0.016772
418.528625	2.237440	0.227434	1.603516	0.013490
420.116028	2.234745	0.205866	1.602900	0.010398
421.703461	2.230236	0.184836	1.601668	0.007688
423.290924	2.224033	0.164601	1.600026	0.005457
424.878418	2.216300	0.145386	1.598167	0.003723
426.465912	2.207234	0.127368	1.596247	0.002443
428.053467	2.197051	0.110683	1.594377	0.001543
429.641052	2.185977	0.095415	1.592623	0.000940
431.228668	2.174239	0.081609	1.591015	0.000554
432.816315	2.162055	0.069264	1.589557	0.000315
434.403961	2.149625	0.058349	1.588242	0.000175
435.991638	2.137130	0.048800	1.587051	0.000095
437.579346	2.124727	0.040532	1.585966	0.000051
439.167084	2.112546	0.033444	1.584970	0.000027
440.754822	2.100691	0.027426	1.584047	0.000015
442.342621	2.089242	0.022361	1.583186	0.000009
443.930420	2.078255	0.018136	1.582377	0.000006
445.518250	2.067765	0.014639	1.581611	0.000004
447.106110	2.057792	0.011768	1.580884	0.000003
448.694000	2.048338	0.009425	1.580190	0.000003
450.281891	2.039398	0.007526	1.579526	0.000003
451.869812	2.030955	0.005996	1.578888	0.000002
453.457764	2.022988	0.004768	1.578274	0.000002
455.045715	2.015471	0.003788	1.577683	0.000002
456.633698	2.008375	0.003008	1.577111	0.000002
458.221680	2.001673	0.002389	1.576559	0.000002
459.809723	1.995335	0.001899	1.576023	0.000001
461.397766	1.989334	0.001511	1.575504	0.000001
462.985840	1.983643	0.001205	1.575000	0.000001
464.573883	1.978239	0.000963	1.574510	0.000001
466.162018	1.973097	0.000771	1.574033	0.000001
467.750092	1.968198	0.000619	1.573569	0.000001
469.338226	1.963522	0.000498	1.573117	0.000001
470.926361	1.959053	0.000403	1.572676	0.000001
472.514557	1.954773	0.000326	1.572246	0.000001
474.102722	1.950671	0.000265	1.571826	0.000001
475.690918	1.946732	0.000216	1.571416	0.000001
477.279144	1.942945	0.000176	1.571015	0.000000
478.867340	1.939301	0.000145	1.570623	0.000000
480.455566	1.935789	0.000119	1.570239	0.000000
482.043854	1.932401	0.000098	1.569864	0.000000
483.632141	1.929131	0.000081	1.569497	0.000000
485.220367	1.925969	0.000067	1.569137	0.000000
486.808685	1.922911	0.000056	1.568784	0.000000
488.396973	1.919951	0.000046	1.568439	0.000000
489.985291	1.917082	0.000039	1.568100	0.000000
491.573578	1.914301	0.000033	1.567767	0.000000
493.161957	1.911602	0.000027	1.567441	0.000000
494.750305	1.908981	0.000023	1.567121	0.000000
496.338623	1.906435	0.000020	1.566807	0.000000
497.927002	1.903961	0.000017	1.566498	0.000000
499.515381	1.901553	0.000014	1.566195	0.000000
501.103760	1.899211	0.000012	1.565898	0.000000
502.692139	1.896930	0.000010	1.565605	0.000000
504.280518	1.894708	0.000009	1.565318	0.000000
505.868958	1.892542	0.000008	1.565035	0.000000
507.457336	1.890431	0.000007	1.564758	0.000000
509.045746	1.888371	0.000006	1.564484	0.000000
510.634186	1.886361	0.000005	1.564216	0.000000
512.222595	1.884399	0.000005	1.563951	0.000000
513.811035	1.882483	0.000004	1.563691	0.000000
515.399475	1.880611	0.000004	1.563435	0.000000
516.987915	1.878781	0.000003	1.563183	0.000000
518.576355	1.876993	0.000003	1.562935	0.000000
520.164795	1.875244	0.000003	1.562691	0.000000
521.753296	1.873533	0.000002	1.562450	0.000000
523.341675	1.871858	0.000002	1.562213	0.000000
524.930176	1.870220	0.000002	1.561980	0.000000
526.518677	1.868615	0.000002	1.561750	0.000000
528.107056	1.867044	0.000002	1.561523	0.000000
529.695557	1.865505	0.000001	1.561300	0.000000
531.283997	1.863997	0.000001	1.561080	0.000000
532.872437	1.862518	0.000001	1.560863	0.000000
534.460938	1.861069	0.000001	1.560649	0.000000
536.049377	1.859648	0.000001	1.560438	0.000000
537.637817	1.858255	0.000001	1.560230	0.000000
539.226257	1.856888	0.000001	1.560025	0.000000
540.814758	1.855546	0.000001	1.559823	0.000000
542.403198	1.854230	0.000001	1.559624	0.000000
543.991638	1.852938	0.000001	1.559427	0.000000
545.580078	1.851669	0.000001	1.559233	0.000000
547.168518	1.850423	0.000001	1.559041	0.000000
548.756958	1.849199	0.000001	1.558852	0.000000
550.345337	1.847997	0.000001	1.558665	0.000000
551.933777	1.846816	0.000000	1.558481	0.000000
553.522217	1.845656	0.000000	1.558299	0.000000
555.110657	1.844515	0.000000	1.558120	0.000000
556.699036	1.843394	0.000000	1.557943	0.000000
558.287476	1.842292	0.000000	1.557768	0.000000
559.875854	1.841208	0.000000	1.557595	0.000000
561.464233	1.840142	0.000000	1.557424	0.000000
563.052612	1.839093	0.000000	1.557256	0.000000
564.640991	1.838061	0.000000	1.557089	0.000000
566.229309	1.837046	0.000000	1.556925	0.000000
567.817688	1.836048	0.000000	1.556763	0.000000
569.406006	1.835065	0.000000	1.556602	0.000000
570.994324	1.834097	0.000000	1.556444	0.000000
572.582642	1.833144	0.000000	1.556287	0.000000
574.170959	1.832206	0.000000	1.556132	0.000000
575.759216	1.831283	0.000000	1.555979	0.000000
577.347534	1.830374	0.000000	1.555828	0.000000
578.935791	1.829478	0.000000	1.555679	0.000000
580.524048	1.828596	0.000000	1.555531	0.000000
582.112305	1.827726	0.000000	1.555385	0.000000
583.700562	1.826870	0.000000	1.555241	0.000000
585.288757	1.826026	0.000000	1.555098	0.000000
586.876953	1.825194	0.000000	1.554957	0.000000
588.465149	1.824374	0.000000	1.554817	0.000000
590.053345	1.823566	0.000000	1.554680	0.000000
591.641479	1.822770	0.000000	1.554543	0.000000
593.229614	1.821984	0.000000	1.554408	0.000000
594.817749	1.821210	0.000000	1.554275	0.000000
596.405823	1.820446	0.000000	1.554143	0.000000
597.993958	1.819693	0.000000	1.554012	0.000000
599.581970	1.818950	0.000000	1.553883	0.000000
601.170044	1.818218	0.000000	1.553756	0.000000
602.758057	1.817495	0.000000	1.553629	0.000000
604.346069	1.816782	0.000000	1.553504	0.000000
605.934082	1.816079	0.000000	1.553380	0.000000
607.522095	1.815384	0.000000	1.553258	0.000000
609.109985	1.814699	0.000000	1.553137	0.000000
610.697937	1.814023	0.000000	1.553017	0.000000
612.285828	1.813356	0.000000	1.552899	0.000000
613.873718	1.812697	0.000000	1.552781	0.000000
615.461609	1.812047	0.000000	1.552665	0.000000
617.049438	1.811405	0.000000	1.552550	0.000000
618.637268	1.810771	0.000000	1.552436	0.000000
620.225037	1.810145	0.000000	1.552324	0.000000
621.812866	1.809528	0.000000	1.552212	0.000000
623.400574	1.808917	0.000000	1.552102	0.000000
624.988342	1.808315	0.000000	1.551993	0.000000
626.576050	1.807719	0.000000	1.551884	0.000000
628.163696	1.807132	0.000000	1.551777	0.000000
629.751343	1.806551	0.000000	1.551671	0.000000
631.338989	1.805977	0.000000	1.551566	0.000000
632.926575	1.805410	0.000000	1.551462	0.000000
634.514099	1.804850	0.000000	1.551359	0.000000
636.101685	1.804297	0.000000	1.551257	0.000000
637.689148	1.803750	0.000000	1.551156	0.000000
639.276672	1.803210	0.000000	1.551056	0.000000
640.864136	1.802676	0.000000	1.550957	0.000000
642.451538	1.802148	0.000000	1.550859	0.000000
644.038940	1.801626	0.000000	1.550762	0.000000
645.626343	1.801110	0.000000	1.550666	0.000000
647.213623	1.800601	0.000000	1.550570	0.000000
648.800903	1.800097	0.000000	1.550476	0.000000
650.388184	1.799599	0.000000	1.550382	0.000000
651.975464	1.799106	0.000000	1.550290	0.000000
653.562622	1.798619	0.000000	1.550198	0.000000
655.149780	1.798138	0.000000	1.550107	0.000000
656.736938	1.797661	0.000000	1.550017	0.000000
658.324097	1.797190	0.000000	1.549927	0.000000
659.911133	1.796725	0.000000	1.549839	0.000000
661.498169	1.796264	0.000000	1.549751	0.000000
663.085205	1.795809	0.000000	1.549664	0.000000
664.672180	1.795358	0.000000	1.549578	0.000000
666.259094	1.794912	0.000000	1.549493	0.000000
667.846008	1.794471	0.000000	1.549408	0.000000
669.432861	1.794035	0.000000	1.549324	0.000000
671.019653	1.793604	0.000000	1.549241	0.000000
672.606445	1.793177	0.000000	1.549159	0.000000
674.193237	1.792754	0.000000	1.549077	0.000000
675.779907	1.792336	0.000000	1.548996	0.000000
677.366577	1.791923	0.000000	1.548916	0.000000
678.953247	1.791513	0.000000	1.548836	0.000000
680.539856	1.791108	0.000000	1.548757	0.000000
682.126343	1.790708	0.000000	1.548679	0.000000
683.712891	1.790311	0.000000	1.548602	0.000000
685.299377	1.789918	0.000000	1.548525	0.000000
686.885803	1.789530	0.000000	1.548449	0.000000
688.472168	1.789145	0.000000	1.548373	0.000000
690.058533	1.788764	0.000000	1.548298	0.000000
691.644836	1.788388	0.000000	1.548224	0.000000
693.231079	1.788014	0.000000	1.548150	0.000000
694.817322	1.787645	0.000000	1.548077	0.000000
696.403442	1.787279	0.000000	1.548005	0.000000
697.989624	1.786917	0.000000	1.547933	0.000000
699.575684	1.786559	0.000000	1.547862	0.000000
701.161743	1.786204	0.000000	1.547791	0.000000
702.747742	1.785853	0.000000	1.547721	0.000000
704.333679	1.785505	0.000000	1.547652	0.000000
705.919556	1.785160	0.000000	1.547583	0.000000
707.505493	1.784819	0.000000	1.547515	0.000000
709.091248	1.784481	0.000000	1.547447	0.000000
710.677002	1.784146	0.000000	1.547380	0.000000
712.262756	1.783815	0.000000	1.547313	0.000000
713.848389	1.783486	0.000000	1.547247	0.000000
715.434021	1.783161	0.000000	1.547181	0.000000
717.019592	1.782839	0.000000	1.547116	0.000000
718.605103	1.782520	0.000000	1.547052	0.000000
720.190552	1.782204	0.000000	1.546988	0.000000
721.776001	1.781891	0.000000	1.546924	0.000000
723.361389	1.781581	0.000000	1.546861	0.000000
724.946655	1.781273	0.000000	1.546799	0.000000
726.531921	1.780969	0.000000	1.546737	0.000000
728.117126	1.780667	0.000000	1.546675	0.000000
729.702271	1.780369	0.000000	1.546614	0.000000
731.287415	1.780072	0.000000	1.546553	0.000000
732.872437	1.779779	0.000000	1.546493	0.000000
734.457458	1.779488	0.000000	1.546434	0.000000
736.042419	1.779200	0.000000	1.546374	0.000000
737.627319	1.778915	0.000000	1.546316	0.000000
739.212158	1.778632	0.000000	1.546257	0.000000
740.796936	1.778352	0.000000	1.546200	0.000000
742.381653	1.778074	0.000000	1.546142	0.000000
743.966309	1.777799	0.000000	1.546085	0.000000
745.550903	1.777526	0.000000	1.546029	0.000000
747.135498	1.777256	0.000000	1.545972	0.000000
748.719971	1.776988	0.000000	1.545917	0.000000
750.304443	1.776722	0.000000	1.545861	0.000000
751.888794	1.776459	0.000000	1.545807	0.000000
753.473145	1.776198	0.000000	1.545752	0.000000
755.057373	1.775939	0.000000	1.545698	0.000000
756.641602	1.775683	0.000000	1.545644	0.000000
758.225708	1.775428	0.000000	1.545591	0.000000
759.809814	1.775176	0.000000	1.545538	0.000000
761.393860	1.774927	0.000000	1.545486	0.000000
762.977783	1.774679	0.000000	1.545434	0.000000
764.561646	1.774433	0.000000	1.545382	0.000000
766.145508	1.774190	0.000000	1.545331	0.000000
767.729309	1.773949	0.000000	1.545280	0.000000
769.313049	1.773709	0.000000	1.545229	0.000000
770.896667	1.773472	0.000000	1.545179	0.000000
772.480225	1.773237	0.000000	1.545129	0.000000
774.063782	1.773003	0.000000	1.545080	0.000000
775.647217	1.772772	0.000000	1.545030	0.000000
777.230591	1.772543	0.000000	1.544982	0.000000
778.813904	1.772315	0.000000	1.544933	0.000000
780.397156	1.772090	0.000000	1.544885	0.000000
781.980347	1.771866	0.000000	1.544837	0.000000
783.563538	1.771644	0.000000	1.544790	0.000000
785.146606	1.771424	0.000000	1.544743	0.000000
786.729553	1.771206	0.000000	1.544696	0.000000
788.312500	1.770990	0.000000	1.544650	0.000000
789.895325	1.770775	0.000000	1.544603	0.000000
791.478149	1.770563	0.000000	1.544558	0.000000
793.060852	1.770352	0.000000	1.544512	0.000000
794.643433	1.770142	0.000000	1.544467	0.000000
796.226074	1.769935	0.000000	1.544422	0.000000
797.808533	1.769729	0.000000	1.544378	0.000000
799.390991	1.769524	0.000000	1.544333	0.000000
800.973328	1.769322	0.000000	1.544289	0.000000
802.555664	1.769121	0.000000	1.544246	0.000000
804.137817	1.768921	0.000000	1.544203	0.000000
805.720032	1.768723	0.000000	1.544160	0.000000
807.302124	1.768527	0.000000	1.544117	0.000000
808.884094	1.768333	0.000000	1.544074	0.000000
810.466003	1.768139	0.000000	1.544032	0.000000
812.047852	1.767948	0.000000	1.543990	0.000000
813.629639	1.767758	0.000000	1.543949	0.000000
815.211304	1.767569	0.000000	1.543907	0.000000
816.792969	1.767382	0.000000	1.543866	0.000000
818.374512	1.767197	0.000000	1.543826	0.000000
819.955933	1.767012	0.000000	1.543785	0.000000
821.537415	1.766830	0.000000	1.543745	0.000000
823.118774	1.766648	0.000000	1.543705	0.000000
824.700012	1.766469	0.000000	1.543665	0.000000
826.281128	1.766290	0.000000	1.543626	0.000000
827.862183	1.766113	0.000000	1.543586	0.000000
829.443237	1.765937	0.000000	1.543548	0.000000
831.024109	1.765763	0.000000	1.543509	0.000000
832.604980	1.765590	0.000000	1.543470	0.000000
834.185730	1.765418	0.000000	1.543432	0.000000
835.766418	1.765248	0.000000	1.543394	0.000000
837.347046	1.765079	0.000000	1.543357	0.000000
838.927612	1.764911	0.000000	1.543319	0.000000
840.507996	1.764745	0.000000	1.543282	0.000000
842.088379	1.764579	0.000000	1.543245	0.000000
843.668640	1.764415	0.000000	1.543208	0.000000
845.248840	1.764252	0.000000	1.543172	0.000000
846.828979	1.764091	0.000000	1.543136	0.000000
848.408997	1.763931	0.000000	1.543100	0.000000
849.988953	1.763772	0.000000	1.543064	0.000000
851.568848	1.763614	0.000000	1.543028	0.000000
853.148621	1.763457	0.000000	1.542993	0.000000
854.728333	1.763301	0.000000	1.542958	0.000000
856.307922	1.763147	0.000000	1.542923	0.000000
857.887390	1.762994	0.000000	1.542888	0.000000
859.466797	1.762842	0.000000	1.542854	0.000000
861.046204	1.762691	0.000000	1.542819	0.000000
862.625488	1.762541	0.000000	1.542785	0.000000
864.204590	1.762392	0.000000	1.542752	0.000000
865.783691	1.762244	0.000000	1.542718	0.000000
867.362671	1.762098	0.000000	1.542685	0.000000
868.941589	1.761952	0.000000	1.542651	0.000000
870.520386	1.761808	0.000000	1.542618	0.000000
872.099121	1.761665	0.000000	1.542585	0.000000
873.677734	1.761522	0.000000	1.542553	0.000000
875.256226	1.761381	0.000000	1.542521	0.000000
876.834778	1.761241	0.000000	1.542488	0.000000
878.413086	1.761101	0.000000	1.542456	0.000000
879.991394	1.760963	0.000000	1.542424	0.000000
881.569519	1.760826	0.000000	1.542393	0.000000
883.147644	1.760690	0.000000	1.542361	0.000000
884.725586	1.760555	0.000000	1.542330	0.000000
886.303528	1.760420	0.000000	1.542299	0.000000
887.881348	1.760287	0.000000	1.542268	0.000000
889.458984	1.760155	0.000000	1.542238	0.000000
891.036621	1.760023	0.000000	1.542207	0.000000
892.614136	1.759893	0.000000	1.542177	0.000000
894.191589	1.759763	0.000000	1.542147	0.000000
895.768860	1.759635	0.000000	1.542117	0.000000
897.346069	1.759507	0.000000	1.542087	0.000000
898.923218	1.759380	0.000000	1.542057	0.000000
900.500305	1.759254	0.000000	1.542028	0.000000
902.077271	1.759129	0.000000	1.541999	0.000000
