Opt. Const. of Biaxial vs. nm
Wavelength (nm)	"n Ordinary"	"k Ordinary"	"n Extra-ordinary"	"k Extra-ordinary"
340.00000	2.8140540	1.3353503	3.0806446	0.72059250
340.50000	2.8384433	1.3303434	3.0882243	0.70893997
341.00000	2.8628325	1.3253366	3.0958040	0.69728744
341.50000	2.8879542	1.3172839	3.1030738	0.68460059
342.00000	2.9130759	1.3092312	3.1103437	0.67191374
342.50000	2.9384460	1.2978663	3.1170267	0.65806115
343.00000	2.9638162	1.2865014	3.1237097	0.64420855
343.50000	2.9888867	1.2715696	3.1293997	0.62923342
344.00000	3.0139573	1.2566378	3.1350896	0.61425829
344.50000	3.0380212	1.2378904	3.1395217	0.59839877
345.00000	3.0620852	1.2191429	3.1439538	0.58253926
345.50000	3.0840557	1.1965840	3.1469761	0.56603044
346.00000	3.1060262	1.1740251	3.1499984	0.54952163
346.50000	3.1249771	1.1483352	3.1515189	0.53259823
347.00000	3.1439281	1.1226453	3.1530395	0.51567483
347.50000	3.1593847	1.0946028	3.1530149	0.49855939
348.00000	3.1748414	1.0665604	3.1529903	0.48144394
348.50000	3.1865486	1.0369211	3.1514063	0.46435201
349.00000	3.1982558	1.0072818	3.1498222	0.44726008
349.50000	3.2061429	0.9767717	3.1466935	0.43040094
350.00000	3.2140300	0.9462617	3.1435647	0.41354179
350.50000	3.2182100	0.9155248	3.1389409	0.39711724
351.00000	3.2223899	0.8847880	3.1343172	0.38069269
351.50000	3.2230227	0.8543188	3.1282685	0.36489668
352.00000	3.2236555	0.8238495	3.1222198	0.34910068
352.50000	3.2209085	0.7941047	3.1148480	0.33412072
353.00000	3.2181616	0.7643600	3.1074762	0.31914076
353.50000	3.2122587	0.7357919	3.0989208	0.30516072
354.00000	3.2063558	0.7072239	3.0903654	0.29118067
354.50000	3.1976000	0.6802592	3.0808411	0.27836202
355.00000	3.1888442	0.6532944	3.0713167	0.26554337
355.50000	3.1776854	0.6282589	3.0610873	0.25392344
356.00000	3.1665266	0.6032235	3.0508578	0.24230351
356.50000	3.1533811	0.5802389	3.0401027	0.23183960
357.00000	3.1402357	0.5572544	3.0293477	0.22137569
357.50000	3.1254313	0.5364090	3.0182005	0.21202803
358.00000	3.1106269	0.5155637	3.0070534	0.20268036
358.50000	3.0944771	0.4969436	2.9956219	0.19440676
359.00000	3.0783272	0.4783236	2.9841905	0.18613315
359.50000	3.0611604	0.4620113	2.9725647	0.17889168
360.00000	3.0439937	0.4456991	2.9609389	0.17165022
360.50000	3.0262344	0.4317224	2.9492023	0.16540682
361.00000	3.0084751	0.4177456	2.9374657	0.15916343
361.50000	2.9905069	0.4059281	2.9256873	0.15387646
362.00000	2.9725387	0.3941105	2.9139090	0.14858949
362.50000	2.9546107	0.3842440	2.9021530	0.14422400
363.00000	2.9366827	0.3743775	2.8903971	0.13985850
363.50000	2.9189634	0.3662586	2.8787235	0.13637953
364.00000	2.9012442	0.3581398	2.8670499	0.13290055
364.50000	2.8838570	0.3515667	2.8555120	0.13027160
365.00000	2.8664699	0.3449935	2.8439741	0.12764265
365.50000	2.8494719	0.3397803	2.8326268	0.12583110
366.00000	2.8324740	0.3345670	2.8212795	0.12401955
366.50000	2.8158875	0.3305843	2.8101765	0.12299160
367.00000	2.7993009	0.3266016	2.7990735	0.12196365
367.50000	2.7831572	0.3237443	2.7882733	0.12168131
368.00000	2.7670135	0.3208871	2.7774732	0.12139897
368.50000	2.7513471	0.3190632	2.7670302	0.12180346
369.00000	2.7356806	0.3172393	2.7565873	0.12220795
369.50000	2.7205210	0.3163525	2.7465417	0.12323985
370.00000	2.7053614	0.3154658	2.7364962	0.12427174
370.50000	2.6907327	0.3154241	2.7268740	0.12587428
371.00000	2.6761041	0.3153824	2.7172518	0.12747683
371.50000	2.6620201	0.3161007	2.7080780	0.12959293
372.00000	2.6479361	0.3168190	2.6989043	0.13170904
372.50000	2.6344054	0.3182127	2.6901950	0.13428272
373.00000	2.6208746	0.3196064	2.6814857	0.13685639
373.50000	2.6078981	0.3215946	2.6732506	0.13983431
374.00000	2.5949216	0.3235828	2.6650155	0.14281222
374.50000	2.5824941	0.3260909	2.6572636	0.14614382
375.00000	2.5700667	0.3285991	2.6495118	0.14947543
375.50000	2.5581727	0.3315462	2.6422470	0.15311099
376.00000	2.5462787	0.3344932	2.6349821	0.15674655
376.50000	2.5348862	0.3378114	2.6282008	0.16063544
377.00000	2.5234938	0.3411296	2.6214194	0.16452433
377.50000	2.5125551	0.3447738	2.6151183	0.16862155
378.00000	2.5016165	0.3484179	2.6088171	0.17271878
378.50000	2.4911004	0.3523606	2.6029882	0.17697825
379.00000	2.4805844	0.3563033	2.5971594	0.18123773
379.50000	2.4704653	0.3605243	2.5917881	0.18561362
380.00000	2.4603462	0.3647453	2.5864167	0.18998952
380.50000	2.4506068	0.3692221	2.5814801	0.19444098
381.00000	2.4408674	0.3736989	2.5765436	0.19889244
381.50000	2.4314908	0.3784081	2.5720162	0.20338833
382.00000	2.4221141	0.3831172	2.5674889	0.20788422
382.50000	2.4130826	0.3880401	2.5633421	0.21240297
383.00000	2.4040511	0.3929629	2.5591953	0.21692172
383.50000	2.3953431	0.3980826	2.5554152	0.22144558
384.00000	2.3866351	0.4032023	2.5516350	0.22596943
384.50000	2.3782382	0.4085043	2.5482018	0.23048037
385.00000	2.3698413	0.4138062	2.5447686	0.23499130
385.50000	2.3617393	0.4192790	2.5416645	0.23946968
386.00000	2.3536372	0.4247518	2.5385604	0.24394807
386.50000	2.3458166	0.4303827	2.5357696	0.24837595
387.00000	2.3379960	0.4360136	2.5329788	0.25280383
387.50000	2.3304430	0.4417870	2.5304837	0.25716622
388.00000	2.3228900	0.4475604	2.5279887	0.26152861
388.50000	2.3155898	0.4534685	2.5257692	0.26580870
389.00000	2.3082895	0.4593765	2.5235498	0.27008879
389.50000	2.3012223	0.4654108	2.5215909	0.27426985
390.00000	2.2941551	0.4714450	2.5196321	0.27845091
390.50000	2.2873063	0.4776007	2.5179108	0.28251722
391.00000	2.2804575	0.4837563	2.5161896	0.28658354
391.50000	2.2738180	0.4900322	2.5146832	0.29052085
392.00000	2.2671785	0.4963081	2.5131769	0.29445815
392.50000	2.2607336	0.5026993	2.5118626	0.29825193
393.00000	2.2542887	0.5090906	2.5105484	0.30204570
393.50000	2.2480264	0.5155910	2.5093958	0.30568241
394.00000	2.2417641	0.5220915	2.5082433	0.30931911
394.50000	2.2356718	0.5287025	2.5072206	0.31278478
395.00000	2.2295794	0.5353136	2.5061979	0.31625044
395.50000	2.2236404	0.5420329	2.5052550	0.31953937
396.00000	2.2177014	0.5487523	2.5043120	0.32282829
396.50000	2.2119030	0.5555873	2.5033971	0.32596137
397.00000	2.2061045	0.5624223	2.5024822	0.32909444
397.50000	2.2004380	0.5693790	2.5015684	0.33210348
398.00000	2.1947715	0.5763356	2.5006547	0.33511251
398.50000	2.1892272	0.5834199	2.4997201	0.33802474
399.00000	2.1836829	0.5905042	2.4987855	0.34093696
399.50000	2.1782551	0.5977210	2.4978169	0.34378482
400.00000	2.1728272	0.6049378	2.4968483	0.34663269
400.50000	2.1675056	0.6122913	2.4958379	0.34944107
401.00000	2.1621840	0.6196447	2.4948275	0.35224944
401.50000	2.1569573	0.6271449	2.4937687	0.35504635
402.00000	2.1517305	0.6346451	2.4927099	0.35784325
402.50000	2.1465907	0.6423070	2.4916039	0.36065410
403.00000	2.1414509	0.6499689	2.4904978	0.36346495
403.50000	2.1363932	0.6578078	2.4893460	0.36631669
404.00000	2.1313355	0.6656467	2.4881942	0.36916843
404.50000	2.1263604	0.6736805	2.4870008	0.37208503
405.00000	2.1213853	0.6817143	2.4858074	0.37500164
405.50000	2.1164954	0.6899564	2.4845835	0.37800606
406.00000	2.1116054	0.6981986	2.4833596	0.38101047
406.50000	2.1068037	0.7066661	2.4821153	0.38412714
407.00000	2.1020019	0.7151336	2.4808710	0.38724381
407.50000	2.0972946	0.7238396	2.4796247	0.39049633
408.00000	2.0925872	0.7325456	2.4783785	0.39374885
408.50000	2.0879750	0.7415100	2.4771473	0.39715597
409.00000	2.0833628	0.7504745	2.4759161	0.40056309
409.50000	2.0788592	0.7597170	2.4747277	0.40414773
410.00000	2.0743556	0.7689595	2.4735394	0.40773237
410.50000	2.0699726	0.7784997	2.4724292	0.41151673
411.00000	2.0655897	0.7880400	2.4713190	0.41530108
411.50000	2.0613477	0.7978999	2.4703412	0.41928695
412.00000	2.0571058	0.8077597	2.4693635	0.42327282
412.50000	2.0530283	0.8179579	2.4685657	0.42743801
413.00000	2.0489509	0.8281561	2.4677680	0.43160319
413.50000	2.0450690	0.8387106	2.4671735	0.43591900
414.00000	2.0411870	0.8492651	2.4665790	0.44023481
414.50000	2.0375469	0.8601935	2.4662087	0.44467412
415.00000	2.0339067	0.8711220	2.4658384	0.44911343
415.50000	2.0305599	0.8824111	2.4657062	0.45364866
416.00000	2.0272131	0.8937003	2.4655740	0.45818388
416.50000	2.0241990	0.9053249	2.4656879	0.46279170
417.00000	2.0211849	0.9169496	2.4658017	0.46739951
417.50000	2.0185232	0.9288842	2.4661658	0.47205159
418.00000	2.0158615	0.9408188	2.4665298	0.47670367
418.50000	2.0135742	0.9530403	2.4671487	0.48137634
419.00000	2.0112870	0.9652618	2.4677675	0.48604900
419.50000	2.0093875	0.9777422	2.4686389	0.49072114
420.00000	2.0074880	0.9902227	2.4695103	0.49539328
420.50000	2.0059817	1.0029403	2.4706326	0.50003892
421.00000	2.0044754	1.0156578	2.4717548	0.50468457
421.50000	2.0033640	1.0285909	2.4731231	0.50928190
422.00000	2.0022526	1.0415241	2.4744914	0.51387924
422.50000	2.0015336	1.0546607	2.4760963	0.51840764
423.00000	2.0008147	1.0677974	2.4777012	0.52293605
423.50000	2.0004860	1.0811316	2.4795337	0.52737287
424.00000	2.0001574	1.0944657	2.4813662	0.53180969
424.50000	2.0002289	1.1079973	2.4834114	0.53613639
425.00000	2.0003004	1.1215289	2.4854567	0.54046309
425.50000	2.0007770	1.1352533	2.4877013	0.54465774
426.00000	2.0012536	1.1489778	2.4899459	0.54885238
426.50000	2.0021505	1.1628900	2.4923669	0.55289662
427.00000	2.0030475	1.1768022	2.4947879	0.55694085
427.50000	2.0043755	1.1909003	2.4973584	0.56081709
428.00000	2.0057034	1.2049984	2.4999290	0.56469333
428.50000	2.0074831	1.2192802	2.5026047	0.56838986
429.00000	2.0092628	1.2335620	2.5052805	0.57208639
429.50000	2.0115213	1.2480124	2.5080246	0.57562286
430.00000	2.0137799	1.2624627	2.5107687	0.57915932
430.50000	2.0165396	1.2770586	2.5135607	0.58255529
431.00000	2.0192993	1.2916545	2.5163527	0.58595127
431.50000	2.0225687	1.3063694	2.5191776	0.58922407
432.00000	2.0258381	1.3210844	2.5220025	0.59249687
432.50000	2.0296280	1.3358915	2.5248474	0.59566721
433.00000	2.0334179	1.3506987	2.5276923	0.59883755
433.50000	2.0377294	1.3655741	2.5305538	0.60192239
434.00000	2.0420408	1.3804494	2.5334153	0.60500723
434.50000	2.0468756	1.3953692	2.5362868	0.60802335
435.00000	2.0517104	1.4102890	2.5391583	0.61103946
435.50000	2.0570592	1.4252303	2.5420393	0.61400771
436.00000	2.0624080	1.4401715	2.5449202	0.61697596
436.50000	2.0682578	1.4551101	2.5478108	0.61990917
437.00000	2.0741076	1.4700488	2.5507014	0.62284237
437.50000	2.0804377	1.4849892	2.5536076	0.62575909
438.00000	2.0867677	1.4999295	2.5565138	0.62867582
438.50000	2.0935706	1.5148782	2.5594372	0.63159090
439.00000	2.1003735	1.5298269	2.5623605	0.63450599
439.50000	2.1076537	1.5447956	2.5653123	0.63743556
440.00000	2.1149340	1.5597643	2.5682640	0.64036512
440.50000	2.1226970	1.5747600	2.5712508	0.64332318
441.00000	2.1304600	1.5897557	2.5742376	0.64628124
441.50000	2.1387221	1.6047919	2.5772756	0.64928317
442.00000	2.1469841	1.6198282	2.5803137	0.65228510
442.50000	2.1557686	1.6349112	2.5834161	0.65534598
443.00000	2.1645532	1.6499941	2.5865185	0.65840685
443.50000	2.1738906	1.6651332	2.5897037	0.66153926
444.00000	2.1832280	1.6802723	2.5928888	0.66467166
444.50000	2.1931632	1.6954718	2.5961800	0.66789049
445.00000	2.2030983	1.7106713	2.5994711	0.67110932
445.50000	2.2136908	1.7259008	2.6029000	0.67442426
446.00000	2.2242832	1.7411302	2.6063290	0.67773920
446.50000	2.2355604	1.7563486	2.6099412	0.68116510
447.00000	2.2468376	1.7715669	2.6135535	0.68459100
447.50000	2.2588294	1.7867376	2.6174039	0.68810597
448.00000	2.2708211	1.8019083	2.6212542	0.69162095
448.50000	2.2835436	1.8169937	2.6253802	0.69518593
449.00000	2.2962661	1.8320791	2.6295061	0.69875091
449.50000	2.3097365	1.8470428	2.6339278	0.70232925
450.00000	2.3232069	1.8620065	2.6383495	0.70590758
450.50000	2.3374428	1.8768116	2.6430817	0.70946342
451.00000	2.3516786	1.8916167	2.6478138	0.71301925
451.50000	2.3666960	1.9062287	2.6528649	0.71651539
452.00000	2.3817134	1.9208407	2.6579161	0.72001153
452.50000	2.3975395	1.9352269	2.6632895	0.72341323
453.00000	2.4133656	1.9496131	2.6686630	0.72681493
453.50000	2.4300249	1.9637125	2.6743609	0.73008847
454.00000	2.4466841	1.9778119	2.6800587	0.73336202
454.50000	2.4641877	1.9915660	2.6860743	0.73647371
455.00000	2.4816914	2.0053201	2.6920898	0.73958540
455.50000	2.5000434	2.0186638	2.6984212	0.74250346
456.00000	2.5183954	2.0320075	2.7047527	0.74542153
456.50000	2.5375885	2.0448829	2.7113876	0.74811572
457.00000	2.5567815	2.0577583	2.7180226	0.75080991
457.50000	2.5768062	2.0701040	2.7249506	0.75324982
458.00000	2.5968308	2.0824497	2.7318785	0.75568974
458.50000	2.6176714	2.0942094	2.7390856	0.75784224
459.00000	2.6385119	2.1059692	2.7462926	0.75999475
459.50000	2.6601493	2.1170870	2.7537613	0.76183617
460.00000	2.6817868	2.1282048	2.7612300	0.76367760
460.50000	2.7041997	2.1386287	2.7689427	0.76517692
461.00000	2.7266126	2.1490526	2.7766554	0.76667625
461.50000	2.7497756	2.1587263	2.7845888	0.76780659
462.00000	2.7729387	2.1684000	2.7925222	0.76893693
462.50000	2.7968248	2.1772764	2.8006520	0.76967084
463.00000	2.8207109	2.1861527	2.8087819	0.77040476
463.50000	2.8452878	2.1941761	2.8170768	0.77071887
464.00000	2.8698647	2.2021995	2.8253717	0.77103299
464.50000	2.8950979	2.2093258	2.8338004	0.77090207
465.00000	2.9203310	2.2164521	2.8422291	0.77077115
465.50000	2.9461863	2.2226334	2.8507528	0.77016878
466.00000	2.9720416	2.2288146	2.8592765	0.76956642
466.50000	2.9984776	2.2340028	2.8678427	0.76847142
467.00000	3.0249135	2.2391911	2.8764088	0.76737642
467.50000	3.0518910	2.2433430	2.8849496	0.76578835
468.00000	3.0788684	2.2474949	2.8934903	0.76420027
468.50000	3.1063385	2.2505677	2.9019545	0.76214072
469.00000	3.1338086	2.2536404	2.9104187	0.76008117
469.50000	3.1617275	2.2555908	2.9187701	0.75757784
470.00000	3.1896465	2.2575412	2.9271214	0.75507450
470.50000	3.2179636	2.2583289	2.9353280	0.75214753
471.00000	3.2462807	2.2591166	2.9435346	0.74922055
471.50000	3.2749456	2.2586969	2.9515735	0.74589702
472.00000	3.3036106	2.2582772	2.9596124	0.74257350
472.50000	3.3325628	2.2566130	2.9674624	0.73887256
473.00000	3.3615150	2.2549489	2.9753125	0.73517162
473.50000	3.3906950	2.2520013	2.9829545	0.73111832
474.00000	3.4198749	2.2490537	2.9905965	0.72706503
474.50000	3.4492148	2.2447804	2.9980147	0.72268003
475.00000	3.4785547	2.2405071	3.0054328	0.71829504
475.50000	3.5079845	2.2348758	3.0126156	0.71359995
476.00000	3.5374143	2.2292445	3.0197983	0.70890486
476.50000	3.5668505	2.2222185	3.0267298	0.70391932
477.00000	3.5962868	2.2151926	3.0336614	0.69893378
477.50000	3.6256456	2.2067356	3.0403361	0.69367903
478.00000	3.6550045	2.1982787	3.0470109	0.68842429
478.50000	3.6841711	2.1883590	3.0534168	0.68292105
479.00000	3.7133377	2.1784394	3.0598228	0.67741781
479.50000	3.7421789	2.1670647	3.0659552	0.67168438
480.00000	3.7710202	2.1556900	3.0720875	0.66595095
480.50000	3.7994238	2.1429039	3.0779401	0.66000563
481.00000	3.8278275	2.1301179	3.0837927	0.65406030
481.50000	3.8557096	2.1159687	3.0893590	0.64792341
482.00000	3.8835917	2.1018195	3.0949254	0.64178652
482.50000	3.9108782	2.0863507	3.1002041	0.63547361
483.00000	3.9381647	2.0708818	3.1054828	0.62916070
483.50000	3.9647896	2.0541409	3.1104697	0.62269264
484.00000	3.9914145	2.0374000	3.1154566	0.61622459
484.50000	4.0173182	2.0194284	3.1201518	0.60961571
485.00000	4.0432220	2.0014567	3.1248469	0.60300684
485.50000	4.0683470	1.9822981	3.1292453	0.59627625
486.00000	4.0934720	1.9631395	3.1336436	0.58954567
486.50000	4.1177649	1.9428365	3.1377499	0.58270821
487.00000	4.1420579	1.9225334	3.1418562	0.57587075
487.50000	4.1654742	1.9011278	3.1456693	0.56894439
488.00000	4.1888905	1.8797221	3.1494825	0.56201804
488.50000	4.2113826	1.8572502	3.1530054	0.55501747
489.00000	4.2338748	1.8347783	3.1565282	0.54801691
489.50000	4.2554035	1.8112710	3.1597662	0.54095531
490.00000	4.2769322	1.7877637	3.1630042	0.53389370
490.50000	4.2974460	1.7632507	3.1659590	0.52678564
491.00000	4.3179598	1.7387377	3.1689138	0.51967758
491.50000	4.3374071	1.7132437	3.1715896	0.51253065
492.00000	4.3568544	1.6877497	3.1742654	0.50538373
492.50000	4.3751757	1.6613043	3.1766660	0.49821447
493.00000	4.3934970	1.6348588	3.1790667	0.49104521
493.50000	4.4106348	1.6074868	3.1811947	0.48386104
494.00000	4.4277725	1.5801147	3.1833227	0.47667688
494.50000	4.4436560	1.5518428	3.1851828	0.46948893
495.00000	4.4595394	1.5235709	3.1870430	0.46230099
495.50000	4.4740880	1.4944242	3.1886395	0.45512211
496.00000	4.4886365	1.4652776	3.1902361	0.44794324
496.50000	4.5017540	1.4352815	3.1915702	0.44078238
497.00000	4.5148716	1.4052855	3.1929042	0.43362153
497.50000	4.5264294	1.3744654	3.1939811	0.42648792
498.00000	4.5379872	1.3436453	3.1950579	0.41935432
498.50000	4.5477827	1.3120779	3.1958842	0.41225897
499.00000	4.5575781	1.2805105	3.1967106	0.40516362
499.50000	4.5654488	1.2484059	3.1972897	0.39811552
500.00000	4.5733194	1.2163013	3.1978688	0.39106742
500.50000	4.5791898	1.1838824	3.1982061	0.38407727
501.00000	4.5850601	1.1514634	3.1985433	0.37708712
501.50000	4.5888951	1.1189429	3.1986443	0.37016392
502.00000	4.5927300	1.0864224	3.1987453	0.36324072
502.50000	4.5945296	1.0540125	3.1986153	0.35639143
503.00000	4.5963292	1.0216025	3.1984854	0.34954214
503.50000	4.5961120	0.9895102	3.1981286	0.34277728
504.00000	4.5958948	0.9574180	3.1977718	0.33601242
504.50000	4.5937150	0.9258429	3.1971972	0.32933903
505.00000	4.5915351	0.8942679	3.1966226	0.32266563
505.50000	4.5874658	0.8634070	3.1958363	0.31609406
506.00000	4.5833964	0.8325461	3.1950500	0.30952248
506.50000	4.5775414	0.8025901	3.1940575	0.30305940
507.00000	4.5716863	0.7726340	3.1930649	0.29659632
507.50000	4.5641868	0.7437726	3.1918745	0.29025023
508.00000	4.5566874	0.7149112	3.1906841	0.28390414
508.50000	4.5477548	0.6872965	3.1893032	0.27768154
509.00000	4.5388222	0.6596817	3.1879222	0.27145895
509.50000	4.5286844	0.6333562	3.1863589	0.26536815
510.00000	4.5185466	0.6070308	3.1847956	0.25927734
510.50000	4.5073619	0.5819947	3.1830593	0.25332651
511.00000	4.4961772	0.5569587	3.1813231	0.24737568
511.50000	4.4840775	0.5332132	3.1794243	0.24156935
512.00000	4.4719777	0.5094676	3.1775255	0.23576301
512.50000	4.4590740	0.4870136	3.1754712	0.23011260
513.00000	4.4461703	0.4645596	3.1734169	0.22446218
513.50000	4.4325705	0.4433975	3.1712267	0.21896694
514.00000	4.4189706	0.4222354	3.1690366	0.21347170
514.50000	4.4047744	0.4023670	3.1667197	0.20813755
515.00000	4.3905783	0.3824986	3.1644027	0.20280340
515.50000	4.3758838	0.3639255	3.1619716	0.19762552
516.00000	4.3611894	0.3453524	3.1595404	0.19244763
516.50000	4.3460929	0.3280743	3.1570047	0.18742464
517.00000	4.3309965	0.3107961	3.1544690	0.18240164
517.50000	4.3155987	0.2948150	3.1518369	0.17753378
518.00000	4.3002009	0.2788339	3.1492047	0.17266592
518.50000	4.2846134	0.2641464	3.1464820	0.16795156
519.00000	4.2690258	0.2494590	3.1437593	0.16323720
519.50000	4.2533875	0.2360423	3.1409527	0.15867467
520.00000	4.2377491	0.2226256	3.1381462	0.15411215
520.50000	4.2221758	0.2104035	3.1352652	0.14970157
521.00000	4.2066026	0.1981815	3.1323843	0.14529099
521.50000	4.1911731	0.1870752	3.1294336	0.14102876
522.00000	4.1757436	0.1759689	3.1264830	0.13676654
522.50000	4.1605308	0.1659060	3.1234682	0.13265438
523.00000	4.1453180	0.1558430	3.1204534	0.12854223
523.50000	4.1303704	0.1467470	3.1173791	0.12457473
524.00000	4.1154227	0.1376510	3.1143048	0.12060723
524.50000	4.1007900	0.1294506	3.1111786	0.11678782
525.00000	4.0861573	0.1212503	3.1080525	0.11296841
525.50000	4.0718727	0.1138729	3.1048788	0.10929337
526.00000	4.0575881	0.1064955	3.1017051	0.10561833
526.50000	4.0436792	0.0998734	3.0984877	0.10208743
527.00000	4.0297704	0.0932513	3.0952704	0.09855652
527.50000	4.0162547	0.0873156	3.0920156	0.09516780
528.00000	4.0027390	0.0813800	3.0887609	0.09177907
528.50000	3.9896349	0.0760631	3.0854743	0.08853226
529.00000	3.9765308	0.0707463	3.0821877	0.08528545
529.50000	3.9638352	0.0659834	3.0788715	0.08217848
530.00000	3.9511397	0.0612204	3.0755553	0.07907151
530.50000	3.9388388	0.0569575	3.0722172	0.07610237
